Test:46
BatchNo: /	
SampleNo: /	
Custom1: /	
Custom2: /	
Custom3: 11/4/2022	
Custom4: /	
Custom5: /	
Custom6: /	
Custom7: /	
Custom8: 10.09	
Custom9: 2.98	
Custom10: /	
Custom11: 30.068	
Custom12: 25.695	
Custom13: 12.1	
Custom14: 0.471	
Custom15: 14.50	
Custom16: 482	
Custom17: 223.58	
Custom18: 191.063	
Custom19: 191063	
Custom20: 11.216	
Custom21: 373.02	
Custom22: 11.036	
Custom23: 367.04	
Custom24: 11.44	
Custom25: 380.47	
Custom26: 11.30	
Custom27: 11.38	
Custom28: 10.95	
Custom29: 0.00	
Custom30: 364.17	
Custom31: /	
Custom32: /	
Custom33: /	
Custom34: /	
Custom35: /	
Custom36: /	
Custom37: /	
Custom38: /	
Custom39: /	
Custom40: /	

=========================Curve==========================
DataNumber:2949
Load			Extension			Broadwise Extension			Displacement			Stress			Strain			Time
0.0142		-0.0002		0.0000		0.0132		0.4723		-0.0004		0.1000
0.0300		0.0000		0.0000		0.0219		0.9977		0.0000		0.2000
0.0446		0.0000		0.0000		0.0305		1.4833		0.0000		0.3000
0.0584		0.0000		0.0000		0.0389		1.9423		0.0000		0.4000
0.0714		0.0000		0.0000		0.0472		2.3746		0.0000		0.5000
0.0836		0.0000		0.0000		0.0556		2.7803		0.0000		0.6000
0.0956		0.0000		0.0000		0.0639		3.1794		0.0000		0.7000
0.1074		0.0000		0.0000		0.0720		3.5719		0.0000		0.8000
0.1194		0.0000		0.0000		0.0804		3.9710		0.0000		0.9000
0.1320		0.0000		0.0000		0.0887		4.3900		0.0000		1.0000
0.1448		0.0000		0.0000		0.0971		4.8157		0.0000		1.1000
0.1580		0.0002		0.0000		0.1054		5.2547		0.0004		1.2000
0.1710		0.0002		0.0000		0.1138		5.6871		0.0004		1.3000
0.1842		0.0002		0.0000		0.1221		6.1261		0.0004		1.4000
0.1976		0.0004		0.0000		0.1305		6.5717		0.0008		1.5000
0.2106		0.0004		0.0000		0.1388		7.0041		0.0008		1.6000
0.2238		0.0006		0.0000		0.1469		7.4431		0.0012		1.7000
0.2370		0.0006		0.0000		0.1549		7.8821		0.0012		1.8000
0.2506		0.0008		0.0000		0.1639		8.3344		0.0016		1.9000
0.2640		0.0008		0.0000		0.1722		8.7800		0.0016		2.0000
0.2780		0.0010		0.0000		0.1806		9.2456		0.0020		2.1000
0.2922		0.0010		0.0000		0.1889		9.7179		0.0020		2.2000
0.3070		0.0012		0.0000		0.1970		10.2101		0.0024		2.3000
0.3226		0.0012		0.0000		0.2053		10.7289		0.0024		2.4000
0.3386		0.0012		0.0000		0.2137		11.2611		0.0024		2.5000
0.3546		0.0012		0.0000		0.2220		11.7932		0.0024		2.6000
0.3712		0.0014		0.0000		0.2301		12.3453		0.0028		2.7000
0.3878		0.0014		0.0000		0.2388		12.8973		0.0028		2.8000
0.4046		0.0016		0.0000		0.2474		13.4561		0.0032		2.9000
0.4220		0.0016		0.0000		0.2555		14.0348		0.0032		3.0000
0.4398		0.0016		0.0000		0.2638		14.6267		0.0032		3.1000
0.4578		0.0018		0.0000		0.2719		15.2254		0.0036		3.2000
0.4764		0.0018		0.0000		0.2802		15.8440		0.0036		3.3000
0.4948		0.0018		0.0000		0.2886		16.4559		0.0036		3.4000
0.5138		0.0020		0.0000		0.2972		17.0878		0.0040		3.5000
0.5334		0.0020		0.0000		0.3053		17.7397		0.0040		3.6000
0.5528		0.0022		0.0000		0.3139		18.3849		0.0044		3.7000
0.5722		0.0022		0.0000		0.3223		19.0301		0.0044		3.8000
0.5926		0.0024		0.0000		0.3303		19.7085		0.0048		3.9000
0.6130		0.0024		0.0000		0.3387		20.3870		0.0048		4.0000
0.6338		0.0026		0.0000		0.3468		21.0787		0.0052		4.1000
0.6552		0.0026		0.0000		0.3554		21.7905		0.0052		4.2000
0.6774		0.0028		0.0000		0.3637		22.5288		0.0056		4.3000
0.7000		0.0030		0.0000		0.3721		23.2804		0.0060		4.4000
0.7228		0.0030		0.0000		0.3802		24.0387		0.0060		4.5000
0.7458		0.0032		0.0000		0.3888		24.8036		0.0064		4.6000
0.7690		0.0034		0.0000		0.3966		25.5752		0.0068		4.7000
0.7928		0.0034		0.0000		0.4055		26.3667		0.0068		4.8000
0.8168		0.0034		0.0000		0.4139		27.1649		0.0068		4.9000
0.8414		0.0036		0.0000		0.4222		27.9830		0.0072		5.0000
0.8658		0.0036		0.0000		0.4306		28.7945		0.0072		5.1000
0.8908		0.0038		0.0000		0.4389		29.6260		0.0076		5.2000
0.9162		0.0040		0.0000		0.4473		30.4707		0.0080		5.3000
0.9420		0.0040		0.0000		0.4553		31.3288		0.0080		5.4000
0.9682		0.0042		0.0000		0.4637		32.2001		0.0084		5.5000
0.9946		0.0044		0.0000		0.4720		33.0781		0.0088		5.6000
1.0212		0.0044		0.0000		0.4801		33.9628		0.0088		5.7000
1.0478		0.0046		0.0000		0.4887		34.8474		0.0092		5.8000
1.0750		0.0046		0.0000		0.4971		35.7521		0.0092		5.9000
1.1026		0.0048		0.0000		0.5054		36.6700		0.0096		6.0000
1.1300		0.0050		0.0000		0.5138		37.5812		0.0100		6.1000
1.1582		0.0050		0.0000		0.5221		38.5191		0.0100		6.2000
1.1864		0.0050		0.0000		0.5302		39.4570		0.0100		6.3000
1.2150		0.0052		0.0000		0.5386		40.4081		0.0104		6.4000
1.2444		0.0054		0.0000		0.5472		41.3859		0.0108		6.5000
1.2740		0.0054		0.0000		0.5556		42.3703		0.0108		6.6000
1.3034		0.0056		0.0000		0.5636		43.3481		0.0112		6.7000
1.3336		0.0056		0.0000		0.5723		44.3525		0.0112		6.8000
1.3638		0.0058		0.0000		0.5803		45.3569		0.0116		6.9000
1.3942		0.0060		0.0000		0.5887		46.3679		0.0120		7.0000
1.4248		0.0060		0.0000		0.5970		47.3856		0.0120		7.1000
1.4556		0.0062		0.0000		0.6054		48.4099		0.0124		7.2000
1.4866		0.0064		0.0000		0.6137		49.4409		0.0128		7.3000
1.5174		0.0064		0.0000		0.6224		50.4653		0.0128		7.4000
1.5484		0.0066		0.0000		0.6301		51.4963		0.0132		7.5000
1.5798		0.0068		0.0000		0.6388		52.5406		0.0136		7.6000
1.6108		0.0068		0.0000		0.6471		53.5715		0.0136		7.7000
1.6426		0.0070		0.0000		0.6552		54.6291		0.0140		7.8000
1.6742		0.0070		0.0000		0.6638		55.6801		0.0140		7.9000
1.7064		0.0072		0.0000		0.6722		56.7510		0.0144		8.0000
1.7386		0.0072		0.0000		0.6805		57.8219		0.0144		8.1000
1.7714		0.0074		0.0000		0.6889		58.9127		0.0148		8.2000
1.8038		0.0076		0.0000		0.6972		59.9903		0.0152		8.3000
1.8364		0.0078		0.0000		0.7050		61.0745		0.0156		8.4000
1.8696		0.0080		0.0000		0.7137		62.1786		0.0160		8.5000
1.9028		0.0080		0.0000		0.7220		63.2828		0.0160		8.6000
1.9360		0.0082		0.0000		0.7304		64.3870		0.0164		8.7000
1.9692		0.0082		0.0000		0.7390		65.4911		0.0164		8.8000
2.0024		0.0084		0.0000		0.7471		66.5953		0.0168		8.9000
2.0360		0.0086		0.0000		0.7557		67.7127		0.0172		9.0000
2.0700		0.0088		0.0000		0.7638		68.8435		0.0176		9.1000
2.1040		0.0090		0.0000		0.7721		69.9743		0.0180		9.2000
2.1378		0.0090		0.0000		0.7805		71.0984		0.0180		9.3000
2.1716		0.0092		0.0000		0.7888		72.2225		0.0184		9.4000
2.2054		0.0094		0.0000		0.7972		73.3466		0.0188		9.5000
2.2392		0.0094		0.0000		0.8055		74.4707		0.0188		9.6000
2.2734		0.0096		0.0000		0.8136		75.6081		0.0192		9.7000
2.3076		0.0098		0.0000		0.8222		76.7455		0.0196		9.8000
2.3432		0.0100		0.0000		0.8300		77.9295		0.0200		9.9000
2.3788		0.0102		0.0000		0.8387		79.1135		0.0204		10.0000
2.4144		0.0104		0.0000		0.8470		80.2974		0.0208		10.1000
2.4508		0.0106		0.0000		0.8554		81.5080		0.0212		10.2000
2.4870		0.0108		0.0000		0.8637		82.7120		0.0216		10.3000
2.5232		0.0110		0.0000		0.8724		83.9159		0.0220		10.4000
2.5594		0.0110		0.0000		0.8807		85.1198		0.0220		10.5000
2.5960		0.0112		0.0000		0.8888		86.3371		0.0224		10.6000
2.6326		0.0114		0.0000		0.8971		87.5543		0.0228		10.7000
2.6694		0.0116		0.0000		0.9055		88.7782		0.0232		10.8000
2.7062		0.0118		0.0000		0.9138		90.0021		0.0236		10.9000
2.7430		0.0120		0.0000		0.9222		91.2259		0.0240		11.0000
2.7794		0.0120		0.0000		0.9305		92.4365		0.0240		11.1000
2.8158		0.0122		0.0000		0.9389		93.6471		0.0244		11.2000
2.8528		0.0124		0.0000		0.9472		94.8776		0.0248		11.3000
2.8902		0.0126		0.0000		0.9556		96.1215		0.0252		11.4000
2.9272		0.0128		0.0000		0.9636		97.3520		0.0256		11.5000
2.9644		0.0130		0.0000		0.9720		98.5892		0.0260		11.6000
3.0014		0.0132		0.0000		0.9804		99.8197		0.0264		11.7000
3.0384		0.0134		0.0000		0.9887		101.0503		0.0268		11.8000
3.0758		0.0136		0.0000		0.9973		102.2941		0.0272		11.9000
3.1138		0.0136		0.0000		1.0057		103.5579		0.0272		12.0000
3.1518		0.0138		0.0000		1.0140		104.8217		0.0276		12.1000
3.1900		0.0140		0.0000		1.0221		106.0921		0.0280		12.2000
3.2290		0.0142		0.0000		1.0305		107.3892		0.0284		12.3000
3.2678		0.0144		0.0000		1.0388		108.6796		0.0288		12.4000
3.3066		0.0146		0.0000		1.0472		109.9700		0.0292		12.5000
3.3456		0.0148		0.0000		1.0555		111.2670		0.0296		12.6000
3.3846		0.0148		0.0000		1.0639		112.5641		0.0296		12.7000
3.4238		0.0152		0.0000		1.0722		113.8678		0.0304		12.8000
3.4632		0.0154		0.0000		1.0806		115.1782		0.0308		12.9000
3.5030		0.0156		0.0000		1.0889		116.5018		0.0312		13.0000
3.5428		0.0156		0.0000		1.0970		117.8255		0.0312		13.1000
3.5822		0.0158		0.0000		1.1053		119.1358		0.0316		13.2000
3.6218		0.0162		0.0000		1.1140		120.4528		0.0324		13.3000
3.6612		0.0162		0.0000		1.1223		121.7632		0.0324		13.4000
3.7010		0.0164		0.0000		1.1307		123.0868		0.0328		13.5000
3.7410		0.0166		0.0000		1.1390		124.4172		0.0332		13.6000
3.7814		0.0168		0.0000		1.1471		125.7608		0.0336		13.7000
3.8218		0.0168		0.0000		1.1555		127.1044		0.0336		13.8000
3.8620		0.0170		0.0000		1.1632		128.4413		0.0340		13.9000
3.9028		0.0172		0.0000		1.1722		129.7982		0.0344		14.0000
3.9430		0.0174		0.0000		1.1805		131.1352		0.0348		14.1000
3.9832		0.0176		0.0000		1.1889		132.4722		0.0352		14.2000
4.0234		0.0178		0.0000		1.1972		133.8091		0.0356		14.3000
4.0642		0.0180		0.0000		1.2056		135.1660		0.0360		14.4000
4.1052		0.0182		0.0000		1.2139		136.5296		0.0364		14.5000
4.1460		0.0184		0.0000		1.2217		137.8865		0.0368		14.6000
4.1874		0.0184		0.0000		1.2303		139.2634		0.0368		14.7000
4.2284		0.0186		0.0000		1.2387		140.6270		0.0372		14.8000
4.2698		0.0188		0.0000		1.2473		142.0038		0.0376		14.9000
4.3110		0.0190		0.0000		1.2557		143.3741		0.0380		15.0000
4.3522		0.0192		0.0000		1.2640		144.7443		0.0384		15.1000
4.3938		0.0194		0.0000		1.2724		146.1278		0.0388		15.2000
4.4358		0.0194		0.0000		1.2804		147.5246		0.0388		15.3000
4.4780		0.0196		0.0000		1.2888		148.9281		0.0392		15.4000
4.5198		0.0198		0.0000		1.2972		150.3183		0.0396		15.5000
4.5618		0.0200		0.0000		1.3055		151.7151		0.0400		15.6000
4.6038		0.0202		0.0000		1.3139		153.1119		0.0404		15.7000
4.6456		0.0204		0.0000		1.3222		154.5021		0.0408		15.8000
4.6876		0.0206		0.0000		1.3306		155.8989		0.0412		15.9000
4.7296		0.0208		0.0000		1.3389		157.2957		0.0416		16.0000
4.7722		0.0210		0.0000		1.3470		158.7125		0.0420		16.1000
4.8142		0.0212		0.0000		1.3553		160.1093		0.0424		16.2000
4.8562		0.0214		0.0000		1.3637		161.5062		0.0428		16.3000
4.8982		0.0214		0.0000		1.3723		162.9030		0.0428		16.4000
4.9404		0.0216		0.0000		1.3807		164.3065		0.0432		16.5000
4.9830		0.0220		0.0000		1.3890		165.7232		0.0440		16.6000
5.0252		0.0220		0.0000		1.3974		167.1267		0.0440		16.7000
5.0682		0.0222		0.0000		1.4054		168.5568		0.0444		16.8000
5.1104		0.0224		0.0000		1.4138		169.9603		0.0448		16.9000
5.1532		0.0226		0.0000		1.4221		171.3837		0.0452		17.0000
5.1954		0.0228		0.0000		1.4305		172.7872		0.0456		17.1000
5.2376		0.0230		0.0000		1.4388		174.1907		0.0460		17.2000
5.2800		0.0232		0.0000		1.4472		175.6008		0.0464		17.3000
5.3222		0.0234		0.0000		1.4558		177.0043		0.0468		17.4000
5.3604		0.0236		0.0000		1.4639		178.2747		0.0472		17.5000
5.4022		0.0240		0.0000		1.4720		179.6649		0.0480		17.6000
5.4448		0.0242		0.0000		1.4803		181.0816		0.0484		17.7000
5.4874		0.0242		0.0000		1.4887		182.4984		0.0484		17.8000
5.5306		0.0246		0.0000		1.4973		183.9352		0.0492		17.9000
5.5732		0.0246		0.0000		1.5057		185.3520		0.0492		18.0000
5.6164		0.0248		0.0000		1.5140		186.7887		0.0496		18.1000
5.6602		0.0250		0.0000		1.5224		188.2454		0.0500		18.2000
5.7034		0.0252		0.0000		1.5304		189.6821		0.0504		18.3000
5.7470		0.0254		0.0000		1.5388		191.1321		0.0508		18.4000
5.7904		0.0256		0.0000		1.5471		192.5755		0.0512		18.5000
5.8334		0.0258		0.0000		1.5555		194.0056		0.0516		18.6000
5.8772		0.0260		0.0000		1.5638		195.4623		0.0520		18.7000
5.9208		0.0262		0.0000		1.5725		196.9123		0.0524		18.8000
5.9646		0.0264		0.0000		1.5803		198.3690		0.0528		18.9000
6.0084		0.0266		0.0000		1.5889		199.8257		0.0532		19.0000
6.0526		0.0268		0.0000		1.5972		201.2957		0.0536		19.1000
6.0972		0.0270		0.0000		1.6053		202.7790		0.0540		19.2000
6.1416		0.0272		0.0000		1.6140		204.2556		0.0544		19.3000
6.1856		0.0274		0.0000		1.6220		205.7190		0.0548		19.4000
6.2292		0.0274		0.0000		1.6307		207.1690		0.0548		19.5000
6.2732		0.0278		0.0000		1.6390		208.6324		0.0556		19.6000
6.3174		0.0278		0.0000		1.6471		210.1023		0.0556		19.7000
6.3618		0.0282		0.0000		1.6557		211.5790		0.0564		19.8000
6.4068		0.0282		0.0000		1.6635		213.0756		0.0564		19.9000
6.4514		0.0286		0.0000		1.6721		214.5589		0.0572		20.0000
6.4956		0.0286		0.0000		1.6805		216.0289		0.0572		20.1000
6.5402		0.0290		0.0000		1.6888		217.5122		0.0580		20.2000
6.5852		0.0290		0.0000		1.6975		219.0088		0.0580		20.3000
6.6302		0.0292		0.0000		1.7058		220.5054		0.0584		20.4000
6.6758		0.0296		0.0000		1.7139		222.0219		0.0592		20.5000
6.7216		0.0298		0.0000		1.7222		223.5451		0.0596		20.6000
6.7672		0.0298		0.0000		1.7303		225.0617		0.0596		20.7000
6.8130		0.0302		0.0000		1.7387		226.5849		0.0604		20.8000
6.8594		0.0304		0.0000		1.7473		228.1280		0.0608		20.9000
6.9054		0.0304		0.0000		1.7556		229.6579		0.0608		21.0000
6.9518		0.0308		0.0000		1.7640		231.2010		0.0616		21.1000
6.9984		0.0310		0.0000		1.7724		232.7509		0.0620		21.2000
7.0450		0.0312		0.0000		1.7807		234.3007		0.0624		21.3000
7.0914		0.0314		0.0000		1.7888		235.8438		0.0628		21.4000
7.1380		0.0316		0.0000		1.7971		237.3936		0.0632		21.5000
7.1842		0.0318		0.0000		1.8055		238.9301		0.0636		21.6000
7.2308		0.0320		0.0000		1.8138		240.4799		0.0640		21.7000
7.2772		0.0324		0.0000		1.8225		242.0231		0.0648		21.8000
7.3234		0.0324		0.0000		1.8308		243.5596		0.0648		21.9000
7.3702		0.0326		0.0000		1.8392		245.1161		0.0652		22.0000
7.4172		0.0330		0.0000		1.8472		246.6792		0.0660		22.1000
7.4642		0.0332		0.0000		1.8553		248.2423		0.0664		22.2000
7.5112		0.0334		0.0000		1.8636		249.8054		0.0668		22.3000
7.5582		0.0336		0.0000		1.8720		251.3685		0.0672		22.4000
7.6052		0.0338		0.0000		1.8804		252.9317		0.0676		22.5000
7.6522		0.0340		0.0000		1.8890		254.4948		0.0680		22.6000
7.6994		0.0342		0.0000		1.8973		256.0645		0.0684		22.7001
7.7466		0.0344		0.0000		1.9057		257.6343		0.0688		22.8001
7.7942		0.0348		0.0000		1.9138		259.2173		0.0696		22.9001
7.8422		0.0350		0.0000		1.9221		260.8137		0.0700		23.0001
7.8896		0.0352		0.0000		1.9305		262.3901		0.0704		23.1001
7.9364		0.0354		0.0000		1.9385		263.9466		0.0708		23.2001
7.9832		0.0356		0.0000		1.9475		265.5031		0.0712		23.3001
8.0310		0.0358		0.0000		1.9558		267.0928		0.0716		23.4001
8.0764		0.0360		0.0000		1.9642		268.6027		0.0720		23.5001
8.1192		0.0364		0.0000		1.9722		270.0261		0.0728		23.6001
8.1654		0.0366		0.0000		1.9800		271.5627		0.0732		23.7001
8.2112		0.0368		0.0000		1.9886		273.0858		0.0736		23.8001
8.2580		0.0370		0.0000		1.9970		274.6423		0.0740		23.9001
8.3050		0.0372		0.0000		2.0056		276.2054		0.0744		24.0001
8.3522		0.0374		0.0000		2.0140		277.7752		0.0748		24.1001
8.3994		0.0376		0.0000		2.0223		279.3449		0.0752		24.2001
8.4458		0.0380		0.0000		2.0304		280.8881		0.0760		24.3001
8.4926		0.0382		0.0000		2.0388		282.4446		0.0764		24.4001
8.5390		0.0384		0.0000		2.0471		283.9877		0.0768		24.5001
8.5864		0.0386		0.0000		2.0555		285.5641		0.0772		24.6001
8.6340		0.0388		0.0000		2.0638		287.1472		0.0776		24.7001
8.6804		0.0390		0.0000		2.0724		288.6904		0.0780		24.8001
8.7256		0.0392		0.0000		2.0808		290.1936		0.0784		24.9001
8.7722		0.0394		0.0000		2.0892		291.7434		0.0788		25.0001
8.8210		0.0396		0.0000		2.0972		293.3664		0.0792		25.1001
8.8678		0.0398		0.0000		2.1056		294.9229		0.0796		25.2001
8.9148		0.0402		0.0000		2.1136		296.4860		0.0804		25.3001
8.9616		0.0404		0.0000		2.1223		298.0424		0.0808		25.4001
9.0076		0.0406		0.0000		2.1306		299.5723		0.0812		25.5001
9.0538		0.0408		0.0000		2.1390		301.1088		0.0816		25.6001
9.0998		0.0412		0.0000		2.1476		302.6387		0.0824		25.7001
9.1464		0.0414		0.0000		2.1557		304.1885		0.0828		25.8001
9.1930		0.0416		0.0000		2.1637		305.7383		0.0832		25.9001
9.2394		0.0418		0.0000		2.1718		307.2814		0.0836		26.0001
9.2858		0.0420		0.0000		2.1802		308.8246		0.0840		26.1001
9.3316		0.0424		0.0000		2.1888		310.3478		0.0848		26.2001
9.3774		0.0426		0.0000		2.1972		311.8710		0.0852		26.3001
9.4232		0.0428		0.0000		2.2058		313.3942		0.0856		26.4001
9.4702		0.0430		0.0000		2.2136		314.9573		0.0860		26.5001
9.5164		0.0434		0.0000		2.2222		316.4938		0.0868		26.6001
9.5630		0.0436		0.0000		2.2303		318.0436		0.0872		26.7001
9.6090		0.0436		0.0000		2.2386		319.5735		0.0872		26.8001
9.6538		0.0438		0.0000		2.2470		321.0634		0.0876		26.9001
9.6878		0.0440		0.0000		2.2553		322.1942		0.0880		27.0001
9.7252		0.0442		0.0000		2.2640		323.4380		0.0884		27.1001
9.7674		0.0444		0.0000		2.2723		324.8415		0.0888		27.2001
9.8090		0.0446		0.0000		2.2807		326.2250		0.0892		27.3001
9.8504		0.0448		0.0000		2.2887		327.6019		0.0896		27.4001
9.8922		0.0450		0.0000		2.2968		328.9921		0.0900		27.5001
9.9334		0.0450		0.0000		2.3049		330.3623		0.0900		27.6001
9.9738		0.0452		0.0000		2.3135		331.7059		0.0904		27.7001
10.0124		0.0456		0.0000		2.3221		332.9897		0.0912		27.8001
10.0508		0.0456		0.0000		2.3302		334.2668		0.0912		27.9001
10.0860		0.0460		0.0000		2.3391		335.4374		0.0920		28.0001
10.1222		0.0462		0.0000		2.3472		336.6414		0.0924		28.1001
10.1612		0.0464		0.0000		2.3553		337.9384		0.0928		28.2001
10.2000		0.0466		0.0000		2.3636		339.2288		0.0932		28.3001
10.2370		0.0468		0.0000		2.3720		340.4594		0.0936		28.4001
10.2732		0.0470		0.0000		2.3803		341.6633		0.0940		28.5001
10.3098		0.0472		0.0000		2.3890		342.8805		0.0944		28.6001
10.3438		0.0474		0.0000		2.3970		344.0113		0.0948		28.7001
10.3788		0.0476		0.0000		2.4057		345.1753		0.0952		28.8001
10.4146		0.0478		0.0000		2.4137		346.3659		0.0956		28.9001
10.4496		0.0478		0.0000		2.4221		347.5299		0.0956		29.0001
10.4850		0.0478		0.0000		2.4301		348.7072		0.0956		29.1001
10.5200		0.0480		0.0000		2.4388		349.8713		0.0960		29.2001
10.5540		0.0482		0.0000		2.4471		351.0020		0.0964		29.3001
10.5878		0.0482		0.0000		2.4558		352.1262		0.0964		29.4001
10.6190		0.0482		0.0000		2.4641		353.1638		0.0964		29.5001
10.6340		0.0480		0.0000		2.4722		353.6627		0.0960		29.6001
10.6518		0.0480		0.0000		2.4805		354.2546		0.0960		29.7001
10.6728		0.0478		0.0000		2.4880		354.9531		0.0956		29.8001
10.6952		0.0478		0.0000		2.4970		355.6980		0.0956		29.9001
10.7174		0.0476		0.0000		2.5053		356.4363		0.0952		30.0001
10.7410		0.0476		0.0000		2.5140		357.2213		0.0952		30.1001
10.7652		0.0476		0.0000		2.5223		358.0261		0.0952		30.2001
10.7888		0.0476		0.0000		2.5307		358.8110		0.0952		30.3001
10.8124		0.0476		0.0000		2.5390		359.5958		0.0952		30.4001
10.8368		0.0478		0.0000		2.5468		360.4073		0.0956		30.5001
10.8586		0.0478		0.0000		2.5551		361.1323		0.0956		30.6001
10.8740		0.0478		0.0000		2.5638		361.6445		0.0956		30.7001
10.8936		0.0478		0.0000		2.5721		362.2964		0.0956		30.8001
10.9148		0.0480		0.0000		2.5805		363.0014		0.0960		30.9001
10.9324		0.0482		0.0000		2.5891		363.5868		0.0964		31.0001
10.9480		0.0482		0.0000		2.5972		364.1056		0.0964		31.1001
10.9610		0.0484		0.0000		2.6050		364.5380		0.0968		31.2001
10.9730		0.0484		0.0000		2.6136		364.9370		0.0968		31.3001
10.9844		0.0484		0.0000		2.6220		365.3162		0.0968		31.4001
10.9972		0.0486		0.0000		2.6300		365.7419		0.0972		31.5001
11.0090		0.0488		0.0000		2.6389		366.1343		0.0976		31.6001
11.0216		0.0488		0.0000		2.6473		366.5533		0.0976		31.7001
11.0354		0.0490		0.0000		2.6556		367.0123		0.0980		31.8001
11.0512		0.0492		0.0000		2.6640		367.5378		0.0984		31.9001
11.0678		0.0494		0.0000		2.6721		368.0898		0.0988		32.0001
11.0842		0.0494		0.0000		2.6801		368.6353		0.0988		32.1001
11.1006		0.0496		0.0000		2.6888		369.1807		0.0992		32.2001
11.1172		0.0498		0.0000		2.6971		369.7328		0.0996		32.3001
11.1336		0.0498		0.0000		2.7055		370.2782		0.0996		32.4001
11.1486		0.0500		0.0000		2.7138		370.7771		0.1000		32.5001
11.1620		0.0500		0.0000		2.7225		371.2227		0.1000		32.6001
11.1740		0.0502		0.0000		2.7305		371.6218		0.1004		32.7001
11.1846		0.0504		0.0000		2.7386		371.9744		0.1008		32.8001
11.1960		0.0504		0.0000		2.7469		372.3535		0.1008		32.9001
11.2084		0.0506		0.0000		2.7553		372.7659		0.1012		33.0001
11.2156		0.0504		0.0000		2.7636		373.0053		0.1008		33.1001
11.2140		0.0504		0.0000		2.7723		372.9521		0.1008		33.2001
11.2134		0.0502		0.0000		2.7809		372.9322		0.1004		33.3001
11.2092		0.0500		0.0000		2.7890		372.7925		0.1000		33.4001
11.1970		0.0496		0.0000		2.7971		372.3867		0.0992		33.5001
11.1830		0.0494		0.0000		2.8051		371.9211		0.0988		33.6001
11.1708		0.0492		0.0000		2.8135		371.5154		0.0984		33.7001
11.1568		0.0492		0.0000		2.8221		371.0498		0.0984		33.8001
11.1412		0.0490		0.0000		2.8305		370.5310		0.0980		33.9001
11.1200		0.0486		0.0000		2.8391		369.8259		0.0972		34.0001
11.1002		0.0484		0.0000		2.8475		369.1674		0.0968		34.1001
11.0882		0.0482		0.0000		2.8555		368.7683		0.0964		34.2001
11.0890		0.0482		0.0000		2.8636		368.7949		0.0964		34.3000
11.1022		0.0482		0.0000		2.8719		369.2339		0.0964		34.4000
11.1228		0.0484		0.0000		2.8803		369.9190		0.0968		34.5000
11.1470		0.0486		0.0000		2.8889		370.7239		0.0972		34.6000
11.1706		0.0488		0.0000		2.8973		371.5088		0.0976		34.7000
11.1954		0.0488		0.0000		2.9056		372.3336		0.0976		34.8000
11.2188		0.0490		0.0000		2.9140		373.1118		0.0980		34.9000
11.2412		0.0492		0.0000		2.9220		373.8568		0.0984		35.0000
11.2616		0.0494		0.0000		2.9304		374.5352		0.0988		35.1000
11.2812		0.0496		0.0000		2.9385		375.1871		0.0992		35.2000
11.3002		0.0498		0.0000		2.9471		375.8190		0.0996		35.3000
11.3180		0.0498		0.0000		2.9557		376.4109		0.0996		35.4000
11.3358		0.0500		0.0000		2.9641		377.0029		0.1000		35.5000
11.3510		0.0502		0.0000		2.9724		377.5085		0.1004		35.6000
11.3642		0.0504		0.0000		2.9805		377.9474		0.1008		35.7000
11.3752		0.0504		0.0000		2.9886		378.3133		0.1008		35.8000
11.3828		0.0506		0.0000		2.9969		378.5660		0.1012		35.9000
11.3836		0.0504		0.0000		3.0053		378.5927		0.1008		36.0000
11.3712		0.0498		0.0000		3.0139		378.1802		0.0996		36.1000
11.3520		0.0492		0.0000		3.0223		377.5417		0.0984		36.2000
11.3142		0.0486		0.0000		3.0309		376.2846		0.0972		36.3000
11.2646		0.0480		0.0000		3.0390		374.6350		0.0960		36.4000
11.2106		0.0476		0.0000		3.0470		372.8391		0.0952		36.5000
11.1642		0.0472		0.0000		3.0554		371.2959		0.0944		36.6000
11.1348		0.0470		0.0000		3.0635		370.3181		0.0940		36.7000
11.1200		0.0466		0.0000		3.0721		369.8259		0.0932		36.8000
11.1158		0.0464		0.0000		3.0804		369.6862		0.0928		36.9000
11.1122		0.0462		0.0000		3.0891		369.5665		0.0924		37.0000
11.1096		0.0460		0.0000		3.0974		369.4800		0.0920		37.1000
11.1078		0.0460		0.0000		3.1055		369.4202		0.0920		37.2000
11.1026		0.0458		0.0000		3.1139		369.2472		0.0916		37.3000
11.0988		0.0458		0.0000		3.1219		369.1208		0.0916		37.4000
11.0984		0.0456		0.0000		3.1303		369.1075		0.0912		37.5000
11.1028		0.0454		0.0000		3.1386		369.2539		0.0908		37.6000
11.1080		0.0452		0.0000		3.1473		369.4268		0.0904		37.7000
11.1054		0.0452		0.0000		3.1559		369.3404		0.0904		37.8000
11.0942		0.0450		0.0000		3.1640		368.9679		0.0900		37.9000
11.0792		0.0450		0.0000		3.1723		368.4690		0.0900		38.0000
11.0628		0.0450		0.0000		3.1801		367.9236		0.0900		38.1000
11.0460		0.0450		0.0000		3.1887		367.3648		0.0900		38.2000
11.0362		0.0452		0.0000		3.1968		367.0389		0.0904		38.3000
11.0382		0.0454		0.0000		3.2054		367.1054		0.0908		38.4000
11.0496		0.0458		0.0000		3.2141		367.4846		0.0916		38.5000
11.0678		0.0462		0.0000		3.2224		368.0898		0.0924		38.6000
11.0880		0.0464		0.0000		3.2308		368.7617		0.0928		38.7000
11.1096		0.0466		0.0000		3.2383		369.4800		0.0932		38.8000
11.1322		0.0470		0.0000		3.2469		370.2317		0.0940		38.9000
11.1528		0.0472		0.0000		3.2553		370.9167		0.0944		39.0000
11.1728		0.0476		0.0000		3.2633		371.5819		0.0952		39.1000
11.1884		0.0478		0.0000		3.2723		372.1007		0.0956		39.2000
11.1986		0.0480		0.0000		3.2806		372.4400		0.0960		39.3000
11.2050		0.0484		0.0000		3.2892		372.6528		0.0968		39.4000
11.2030		0.0486		0.0000		3.2973		372.5863		0.0972		39.5000
11.1934		0.0488		0.0000		3.3054		372.2671		0.0976		39.6000
11.1882		0.0490		0.0000		3.3137		372.0941		0.0980		39.7000
11.1892		0.0492		0.0000		3.3221		372.1273		0.0984		39.8000
11.1926		0.0496		0.0000		3.3304		372.2404		0.0992		39.9000
11.1978		0.0498		0.0000		3.3391		372.4134		0.0996		40.0000
11.2050		0.0500		0.0000		3.3474		372.6528		0.1000		40.1000
11.2100		0.0500		0.0000		3.3552		372.8191		0.1000		40.2000
11.2112		0.0500		0.0000		3.3638		372.8590		0.1000		40.3000
11.2080		0.0498		0.0000		3.3719		372.7526		0.0996		40.4000
11.2068		0.0496		0.0000		3.3803		372.7127		0.0992		40.5000
11.2060		0.0494		0.0000		3.3889		372.6861		0.0988		40.6000
11.2082		0.0494		0.0000		3.3970		372.7593		0.0988		40.7000
11.2092		0.0496		0.0000		3.4059		372.7925		0.0992		40.7999
11.2078		0.0498		0.0000		3.4142		372.7459		0.0996		40.8999
11.2088		0.0498		0.0000		3.4223		372.7792		0.0996		40.9999
11.2062		0.0500		0.0000		3.4304		372.6927		0.1000		41.0999
11.2074		0.0502		0.0000		3.4387		372.7327		0.1004		41.1999
11.2126		0.0504		0.0000		3.4471		372.9056		0.1008		41.2999
11.2178		0.0506		0.0000		3.4554		373.0785		0.1012		41.3999
11.2264		0.0508		0.0000		3.4641		373.3646		0.1016		41.4999
11.2356		0.0510		0.0000		3.4727		373.6705		0.1020		41.5999
11.2486		0.0514		0.0000		3.4808		374.1029		0.1028		41.6999
11.2586		0.0516		0.0000		3.4888		374.4355		0.1032		41.7999
11.2680		0.0518		0.0000		3.4966		374.7480		0.1036		41.8999
11.2748		0.0520		0.0000		3.5052		374.9742		0.1040		41.9999
11.2814		0.0520		0.0000		3.5136		375.1937		0.1040		42.0999
11.2886		0.0524		0.0000		3.5222		375.4332		0.1048		42.1999
11.2972		0.0524		0.0000		3.5306		375.7192		0.1048		42.2999
11.3088		0.0528		0.0000		3.5392		376.1050		0.1056		42.3999
11.3178		0.0530		0.0000		3.5473		376.4043		0.1060		42.4999
11.3234		0.0532		0.0000		3.5554		376.5905		0.1064		42.5999
11.3230		0.0530		0.0000		3.5637		376.5772		0.1060		42.6999
11.3186		0.0530		0.0000		3.5721		376.4309		0.1060		42.7999
11.2992		0.0530		0.0000		3.5804		375.7857		0.1060		42.8999
11.2684		0.0528		0.0000		3.5888		374.7614		0.1056		42.9999
11.2422		0.0526		0.0000		3.5974		373.8900		0.1052		43.0999
11.2236		0.0524		0.0000		3.6058		373.2714		0.1048		43.1999
11.2156		0.0524		0.0000		3.6138		373.0053		0.1048		43.2999
11.2154		0.0524		0.0000		3.6219		372.9987		0.1048		43.3999
11.2202		0.0524		0.0000		3.6302		373.1583		0.1048		43.4999
11.2292		0.0524		0.0000		3.6386		373.4577		0.1048		43.5999
11.2384		0.0526		0.0000		3.6472		373.7636		0.1052		43.6999
11.2502		0.0526		0.0000		3.6556		374.1561		0.1052		43.7999
11.2582		0.0526		0.0000		3.6642		374.4221		0.1052		43.8999
11.2636		0.0528		0.0000		3.6723		374.6017		0.1056		43.9999
11.2632		0.0528		0.0000		3.6801		374.5884		0.1056		44.0999
11.2584		0.0528		0.0000		3.6887		374.4288		0.1056		44.1999
11.2500		0.0528		0.0000		3.6968		374.1494		0.1056		44.2999
11.2370		0.0528		0.0000		3.7054		373.7170		0.1056		44.3999
11.2204		0.0530		0.0000		3.7140		373.1650		0.1060		44.4999
11.2054		0.0532		0.0000		3.7224		372.6661		0.1064		44.5999
11.1962		0.0532		0.0000		3.7308		372.3602		0.1064		44.6999
11.1926		0.0532		0.0000		3.7388		372.2404		0.1064		44.7999
11.1942		0.0534		0.0000		3.7472		372.2936		0.1068		44.8999
11.2012		0.0536		0.0000		3.7552		372.5264		0.1072		44.9999
11.2128		0.0536		0.0000		3.7636		372.9122		0.1072		45.0999
11.2216		0.0536		0.0000		3.7719		373.2049		0.1072		45.1999
11.2308		0.0536		0.0000		3.7809		373.5109		0.1072		45.2999
11.2400		0.0536		0.0000		3.7892		373.8168		0.1072		45.3999
11.2528		0.0538		0.0000		3.7976		374.2426		0.1076		45.4999
11.2664		0.0540		0.0000		3.8056		374.6949		0.1080		45.5999
11.2746		0.0540		0.0000		3.8131		374.9676		0.1080		45.6999
11.2786		0.0540		0.0000		3.8220		375.1006		0.1080		45.7999
11.2780		0.0540		0.0000		3.8301		375.0806		0.1080		45.8999
11.2662		0.0542		0.0000		3.8390		374.6882		0.1084		45.9999
11.2502		0.0542		0.0000		3.8474		374.1561		0.1084		46.0999
11.2420		0.0542		0.0000		3.8557		373.8833		0.1084		46.1999
11.2424		0.0542		0.0000		3.8638		373.8967		0.1084		46.2999
11.2488		0.0544		0.0000		3.8722		374.1095		0.1088		46.3999
11.2604		0.0546		0.0000		3.8805		374.4953		0.1092		46.4999
11.2726		0.0550		0.0000		3.8886		374.9011		0.1100		46.5999
11.2848		0.0552		0.0000		3.8972		375.3068		0.1104		46.6999
11.2930		0.0556		0.0000		3.9059		375.5795		0.1112		46.7999
11.2902		0.0560		0.0000		3.9142		375.4864		0.1120		46.8999
11.2706		0.0566		0.0000		3.9226		374.8345		0.1132		46.9999
11.2450		0.0576		0.0000		3.9306		373.9831		0.1152		47.0999
11.2190		0.0590		0.0000		3.9387		373.1184		0.1180		47.1999
11.1958		0.0604		0.0000		3.9470		372.3468		0.1208		47.2999
11.1770		0.0614		0.0000		3.9551		371.7216		0.1228		47.3998
11.1616		0.0628		0.0000		3.9640		371.2094		0.1256		47.4998
11.1472		0.0640		0.0000		3.9724		370.7305		0.1280		47.5998
11.1382		0.0650		0.0000		3.9807		370.4312		0.1300		47.6998
11.1360		0.0660		0.0000		3.9888		370.3580		0.1320		47.7998
11.1430		0.0672		0.0000		3.9972		370.5908		0.1344		47.8998
11.1542		0.0684		0.0000		4.0052		370.9633		0.1368		47.9998
11.1658		0.0694		0.0000		4.0133		371.3491		0.1388		48.0998
11.1776		0.0714		0.0000		4.0222		371.7415		0.1428		48.1998
11.1874		0.0728		0.0000		4.0306		372.0675		0.1456		48.2998
11.1948		0.0746		0.0000		4.0392		372.3136		0.1492		48.3998
11.2028		0.0762		0.0000		4.0476		372.5797		0.1524		48.4998
11.2128		0.0780		0.0000		4.0556		372.9122		0.1560		48.5998
11.2230		0.0800		0.0000		4.0637		373.2514		0.1600		48.6998
11.2322		0.0818		0.0000		4.0720		373.5574		0.1636		48.7998
11.2374		0.0836		0.0000		4.0804		373.7304		0.1672		48.8998
11.2414		0.0852		0.0000		4.0890		373.8634		0.1704		48.9998
11.2456		0.0870		0.0000		4.0974		374.0031		0.1740		49.0998
11.2522		0.0886		0.0000		4.1060		374.2226		0.1772		49.1998
11.2626		0.0906		0.0000		4.1141		374.5685		0.1812		49.2998
11.2720		0.0924		0.0000		4.1221		374.8811		0.1848		49.3998
11.2814		0.0942		0.0000		4.1302		375.1937		0.1884		49.4998
11.2906		0.0958		0.0000		4.1383		375.4997		0.1916		49.5998
11.2952		0.0980		0.0000		4.1472		375.6527		0.1960		49.6998
11.2966		0.0998		0.0000		4.1556		375.6992		0.1996		49.7998
11.3006		0.1016		0.0000		4.1642		375.8323		0.2032		49.8998
11.3010		0.1036		0.0000		4.1725		375.8456		0.2072		49.9998
11.3026		0.1056		0.0000		4.1809		375.8988		0.2112		50.0998
11.2970		0.1076		0.0000		4.1887		375.7125		0.2152		50.1998
11.2850		0.1092		0.0000		4.1970		375.3134		0.2184		50.2998
11.2748		0.1104		0.0000		4.2051		374.9742		0.2208		50.3998
11.2676		0.1118		0.0000		4.2140		374.7348		0.2236		50.4998
11.2602		0.1130		0.0000		4.2224		374.4886		0.2260		50.5998
11.2576		0.1138		0.0000		4.2304		374.4022		0.2276		50.6998
11.2588		0.1150		0.0000		4.2391		374.4421		0.2300		50.7998
11.2610		0.1160		0.0000		4.2471		374.5153		0.2320		50.8998
11.2604		0.1170		0.0000		4.2555		374.4953		0.2340		50.9998
11.2662		0.1178		0.0000		4.2636		374.6882		0.2356		51.0998
11.2766		0.1190		0.0000		4.2722		375.0341		0.2380		51.1998
11.2850		0.1200		0.0000		4.2808		375.3134		0.2400		51.2998
11.2944		0.1212		0.0000		4.2892		375.6261		0.2424		51.3998
11.3048		0.1224		0.0000		4.2975		375.9720		0.2448		51.4998
11.3176		0.1236		0.0000		4.3056		376.3976		0.2472		51.5998
11.3318		0.1248		0.0000		4.3137		376.8699		0.2496		51.6998
11.3456		0.1260		0.0000		4.3217		377.3289		0.2520		51.7998
11.3580		0.1278		0.0000		4.3304		377.7412		0.2556		51.8998
11.3696		0.1294		0.0000		4.3390		378.1270		0.2588		51.9998
11.3800		0.1306		0.0000		4.3471		378.4729		0.2612		52.0998
11.3900		0.1326		0.0000		4.3557		378.8055		0.2652		52.1998
11.4000		0.1346		0.0000		4.3644		379.1381		0.2692		52.2998
11.4086		0.1364		0.0000		4.3721		379.4241		0.2728		52.3998
11.4148		0.1382		0.0000		4.3805		379.6303		0.2764		52.4998
11.4194		0.1402		0.0000		4.3885		379.7833		0.2804		52.5998
11.4232		0.1422		0.0000		4.3972		379.9096		0.2844		52.6998
11.4254		0.1438		0.0000		4.4052		379.9828		0.2876		52.7998
11.4280		0.1462		0.0000		4.4142		380.0693		0.2924		52.8998
11.4322		0.1482		0.0000		4.4225		380.2090		0.2964		52.9998
11.4376		0.1502		0.0000		4.4309		380.3886		0.3004		53.0998
11.4430		0.1524		0.0000		4.4389		380.5681		0.3048		53.1998
11.4478		0.1544		0.0000		4.4470		380.7278		0.3088		53.2998
11.4518		0.1560		0.0000		4.4551		380.8608		0.3120		53.3998
11.4558		0.1586		0.0000		4.4637		380.9939		0.3172		53.4998
11.4564		0.1610		0.0000		4.4724		381.0138		0.3220		53.5998
11.4502		0.1628		0.0000		4.4807		380.8076		0.3256		53.6998
11.4294		0.1652		0.0000		4.4893		380.1159		0.3304		53.7998
11.3986		0.1670		0.0000		4.4974		379.0915		0.3340		53.8997
11.3580		0.1686		0.0000		4.5055		377.7412		0.3372		53.9997
11.3146		0.1698		0.0000		4.5138		376.2979		0.3396		54.0997
11.2756		0.1708		0.0000		4.5222		375.0008		0.3416		54.1997
11.2466		0.1716		0.0000		4.5305		374.0363		0.3432		54.2997
11.2258		0.1722		0.0000		4.5389		373.3446		0.3444		54.3997
11.2040		0.1730		0.0000		4.5475		372.6195		0.3460		54.4997
11.1914		0.1736		0.0000		4.5559		372.2005		0.3472		54.5997
11.1874		0.1742		0.0000		4.5639		372.0675		0.3484		54.6997
11.1882		0.1746		0.0000		4.5720		372.0941		0.3492		54.7997
11.1840		0.1752		0.0000		4.5804		371.9544		0.3504		54.8997
11.1732		0.1758		0.0000		4.5890		371.5952		0.3516		54.9997
11.1618		0.1762		0.0000		4.5971		371.2161		0.3524		55.0997
11.1528		0.1766		0.0000		4.6057		370.9167		0.3532		55.1997
11.1458		0.1770		0.0000		4.6143		370.6840		0.3540		55.2997
11.1432		0.1774		0.0000		4.6224		370.5975		0.3548		55.3997
11.1430		0.1778		0.0000		4.6305		370.5908		0.3556		55.4997
11.1502		0.1782		0.0000		4.6388		370.8303		0.3564		55.5997
11.1622		0.1786		0.0000		4.6472		371.2294		0.3572		55.6997
11.1766		0.1792		0.0000		4.6555		371.7083		0.3584		55.7997
11.1888		0.1798		0.0000		4.6642		372.1140		0.3596		55.8997
11.1952		0.1804		0.0000		4.6725		372.3269		0.3608		55.9997
11.2066		0.1808		0.0000		4.6809		372.7061		0.3616		56.0997
11.2266		0.1814		0.0000		4.6886		373.3712		0.3628		56.1997
11.2498		0.1822		0.0000		4.6970		374.1428		0.3644		56.2997
11.2750		0.1832		0.0000		4.7053		374.9809		0.3664		56.3997
11.3014		0.1842		0.0000		4.7140		375.8589		0.3684		56.4997
11.3240		0.1854		0.0000		4.7223		376.6105		0.3708		56.5997
11.3430		0.1868		0.0000		4.7310		377.2424		0.3736		56.6997
11.3608		0.1882		0.0000		4.7393		377.8344		0.3764		56.7997
11.3784		0.1898		0.0000		4.7474		378.4197		0.3796		56.8997
11.3952		0.1916		0.0000		4.7555		378.9784		0.3832		56.9997
11.4108		0.1932		0.0000		4.7635		379.4973		0.3864		57.0997
11.4144		0.1956		0.0000		4.7722		379.6170		0.3912		57.1997
11.4214		0.1978		0.0000		4.7805		379.8498		0.3956		57.2997
11.4322		0.1998		0.0000		4.7892		380.2090		0.3996		57.3997
11.4440		0.2022		0.0000		4.7975		380.6014		0.4044		57.4997
11.4554		0.2046		0.0000		4.8059		380.9805		0.4092		57.5997
11.4638		0.2076		0.0000		4.8142		381.2599		0.4152		57.6997
11.4706		0.2110		0.0000		4.8220		381.4861		0.4220		57.7997
11.4742		0.2140		0.0000		4.8300		381.6058		0.4280		57.8997
11.4722		0.2188		0.0000		4.8390		381.5393		0.4376		57.9997
11.4672		0.2232		0.0000		4.8473		381.3730		0.4464		58.0997
11.4616		0.2280		0.0000		4.8560		381.1868		0.4560		58.1997
11.4462		0.2346		0.0000		4.8643		380.6746		0.4692		58.2997
11.4160		0.2412		0.0000		4.8721		379.6702		0.4824		58.3997
11.3824		0.2524		0.0000		4.8807		378.5527		0.5048		58.4997
11.3530		0.2612		0.0000		4.8888		377.5750		0.5224		58.5997
11.3252		0.2704		0.0000		4.8972		376.6504		0.5408		58.6997
11.2974		0.2778		0.0000		4.9052		375.7258		0.5556		58.7997
11.2692		0.2892		0.0000		4.9141		374.7880		0.5784		58.8997
11.2510		0.2982		0.0000		4.9225		374.1827		0.5964		58.9997
11.2412		0.3066		0.0000		4.9308		373.8568		0.6132		59.0997
11.2364		0.3150		0.0000		4.9389		373.6971		0.6300		59.1997
11.2358		0.3230		0.0000		4.9473		373.6772		0.6460		59.2997
11.2396		0.3308		0.0000		4.9553		373.8036		0.6616		59.3997
11.2428		0.3368		0.0000		4.9634		373.9099		0.6736		59.4997
11.2440		0.3462		0.0000		4.9723		373.9499		0.6924		59.5997
11.2432		0.3536		0.0000		4.9807		373.9233		0.7072		59.6997
11.2384		0.3614		0.0000		4.9893		373.7636		0.7228		59.7997
11.2324		0.3676		0.0000		4.9971		373.5641		0.7352		59.8997
11.2294		0.3762		0.0000		5.0057		373.4643		0.7524		59.9997
11.2386		0.3826		0.0000		5.0138		373.7703		0.7652		60.0997
11.2580		0.3886		0.0000		5.0221		374.4155		0.7772		60.1997
11.2828		0.3938		0.0000		5.0308		375.2403		0.7876		60.2997
11.3100		0.3988		0.0000		5.0391		376.1449		0.7976		60.3997
11.3348		0.4038		0.0000		5.0475		376.9697		0.8076		60.4996
11.3564		0.4076		0.0000		5.0556		377.6880		0.8152		60.5996
11.3686		0.4142		0.0000		5.0642		378.0938		0.8284		60.6996
11.3770		0.4198		0.0000		5.0723		378.3731		0.8396		60.7996
11.3862		0.4252		0.0000		5.0803		378.6791		0.8504		60.8996
11.3940		0.4306		0.0000		5.0887		378.9385		0.8612		60.9996
11.4004		0.4356		0.0000		5.0973		379.1514		0.8712		61.0996
11.4072		0.4408		0.0000		5.1057		379.3775		0.8816		61.1996
11.4140		0.4458		0.0000		5.1143		379.6037		0.8916		61.2996
11.4180		0.4514		0.0000		5.1224		379.7367		0.9028		61.3996
11.4208		0.4556		0.0000		5.1301		379.8298		0.9112		61.4996
11.4198		0.4626		0.0000		5.1385		379.7966		0.9252		61.5996
11.4188		0.4672		0.0000		5.1466		379.7633		0.9344		61.6996
11.4208		0.4740		0.0000		5.1555		379.8298		0.9480		61.7996
11.4190		0.4798		0.0000		5.1638		379.7700		0.9596		61.8996
11.4166		0.4858		0.0000		5.1725		379.6902		0.9716		61.9996
11.4136		0.4916		0.0000		5.1808		379.5904		0.9832		62.0996
11.4138		0.4960		0.0000		5.1886		379.5970		0.9920		62.1996
11.4168		0.5024		0.0000		5.1970		379.6968		1.0048		62.2996
11.4200		0.5078		0.0000		5.2053		379.8032		1.0156		62.3996
11.4146		0.5134		0.0000		5.2137		379.6237		1.0268		62.4996
11.4108		0.5178		0.0000		5.2217		379.4973		1.0356		62.5996
11.4116		0.5236		0.0000		5.2309		379.5239		1.0472		62.6996
11.4152		0.5274		0.0000		5.2387		379.6436		1.0548		62.7996
11.4234		0.5328		0.0000		5.2476		379.9163		1.0656		62.8996
11.4322		0.5376		0.0000		5.2554		380.2090		1.0752		62.9996
11.4414		0.5424		0.0000		5.2638		380.5149		1.0848		63.0996
11.4502		0.5474		0.0000		5.2721		380.8076		1.0948		63.1996
11.4598		0.5520		0.0000		5.2805		381.1269		1.1040		63.2996
11.4686		0.5564		0.0000		5.2888		381.4196		1.1128		63.3996
11.4710		0.5608		0.0000		5.2972		381.4994		1.1216		63.4996
11.4768		0.5654		0.0000		5.3058		381.6923		1.1308		63.5996
11.4856		0.5696		0.0000		5.3142		381.9849		1.1392		63.6996
11.4890		0.5748		0.0000		5.3222		382.0980		1.1496		63.7996
11.4890		0.5790		0.0000		5.3300		382.0980		1.1580		63.8996
11.4926		0.5852		0.0000		5.3389		382.2178		1.1704		63.9996
11.4986		0.5904		0.0000		5.3473		382.4173		1.1808		64.0996
11.5058		0.5958		0.0000		5.3556		382.6568		1.1916		64.1996
11.5148		0.6010		0.0000		5.3643		382.9561		1.2020		64.2996
11.5232		0.6064		0.0000		5.3726		383.2354		1.2128		64.3996
11.5312		0.6116		0.0000		5.3807		383.5015		1.2232		64.4996
11.5386		0.6170		0.0000		5.3888		383.7476		1.2340		64.5996
11.5456		0.6214		0.0000		5.3968		383.9804		1.2428		64.6996
11.5528		0.6280		0.0000		5.4055		384.2199		1.2560		64.7996
11.5612		0.6334		0.0000		5.4141		384.4992		1.2668		64.8996
11.5672		0.6380		0.0000		5.4222		384.6988		1.2760		64.9996
11.5506		0.6462		0.0000		5.4311		384.1467		1.2924		65.0996
11.4906		0.6558		0.0000		5.4392		382.1512		1.3116		65.1996
11.4182		0.6668		0.0000		5.4475		379.7433		1.3336		65.2996
11.3432		0.6780		0.0000		5.4556		377.2490		1.3560		65.3996
11.2722		0.6898		0.0000		5.4639		374.8877		1.3796		65.4996
11.2210		0.6986		0.0000		5.4720		373.1849		1.3972		65.5996
11.1630		0.7114		0.0000		5.4806		371.2560		1.4228		65.6996
11.1312		0.7210		0.0000		5.4893		370.1984		1.4420		65.7996
11.1056		0.7304		0.0000		5.4976		369.3470		1.4608		65.8996
11.0880		0.7394		0.0000		5.5060		368.7617		1.4788		65.9996
11.0804		0.7460		0.0000		5.5135		368.5089		1.4920		66.0996
11.0814		0.7556		0.0000		5.5221		368.5422		1.5112		66.1996
11.0852		0.7634		0.0000		5.5305		368.6685		1.5268		66.2996
11.0858		0.7714		0.0000		5.5388		368.6885		1.5428		66.3996
11.0842		0.7776		0.0000		5.5472		368.6353		1.5552		66.4996
11.0854		0.7860		0.0000		5.5558		368.6752		1.5720		66.5996
11.0916		0.7928		0.0000		5.5644		368.8814		1.5856		66.6996
11.1054		0.7990		0.0000		5.5722		369.3404		1.5980		66.7996
11.1262		0.8046		0.0000		5.5806		370.0321		1.6092		66.8996
11.1504		0.8100		0.0000		5.5889		370.8369		1.6200		66.9995
11.1788		0.8152		0.0000		5.5973		371.7815		1.6304		67.0995
11.2094		0.8192		0.0000		5.6053		372.7992		1.6384		67.1995
11.2416		0.8252		0.0000		5.6143		373.8701		1.6504		67.2995
11.2712		0.8298		0.0000		5.6226		374.8545		1.6596		67.3995
11.2974		0.8350		0.0000		5.6310		375.7258		1.6700		67.4995
11.3240		0.8398		0.0000		5.6390		376.6105		1.6796		67.5995
11.3514		0.8446		0.0000		5.6471		377.5218		1.6892		67.6995
11.3790		0.8494		0.0000		5.6555		378.4397		1.6988		67.7995
11.4062		0.8542		0.0000		5.6641		379.3443		1.7084		67.8995
11.4322		0.8580		0.0000		5.6722		380.2090		1.7160		67.9995
11.4562		0.8638		0.0000		5.6811		381.0071		1.7276		68.0995
11.4788		0.8684		0.0000		5.6894		381.7588		1.7368		68.1995
11.5010		0.8718		0.0000		5.6969		382.4971		1.7436		68.2995
11.5220		0.8770		0.0000		5.7056		383.1955		1.7540		68.3995
11.5438		0.8814		0.0000		5.7136		383.9206		1.7628		68.4995
11.5644		0.8858		0.0000		5.7223		384.6057		1.7716		68.5995
11.5832		0.8900		0.0000		5.7306		385.2309		1.7800		68.6995
11.5964		0.8942		0.0000		5.7393		385.6699		1.7884		68.7995
11.6060		0.8984		0.0000		5.7476		385.9892		1.7968		68.8995
11.6236		0.9024		0.0000		5.7560		386.5745		1.8048		68.9995
11.6446		0.9054		0.0000		5.7637		387.2729		1.8108		69.0995
11.6618		0.9096		0.0000		5.7721		387.8450		1.8192		69.1995
11.6774		0.9132		0.0000		5.7804		388.3638		1.8264		69.2995
11.6940		0.9156		0.0000		5.7888		388.9159		1.8312		69.3995
11.7106		0.9196		0.0000		5.7974		389.4679		1.8392		69.4995
11.7196		0.9226		0.0000		5.8061		389.7672		1.8452		69.5995
11.6914		0.9248		0.0000		5.8144		388.8294		1.8496		69.6995
11.6958		0.9268		0.0000		5.8225		388.9757		1.8536		69.7995
11.7170		0.9288		0.0000		5.8306		389.6808		1.8576		69.8995
11.7400		0.9310		0.0000		5.8389		390.4457		1.8620		69.9995
11.7588		0.9332		0.0000		5.8473		391.0709		1.8664		70.0995
11.7738		0.9356		0.0000		5.8556		391.5698		1.8712		70.1995
11.7870		0.9380		0.0000		5.8643		392.0088		1.8760		70.2995
11.7986		0.9404		0.0000		5.8726		392.3946		1.8808		70.3995
11.8076		0.9424		0.0000		5.8807		392.6939		1.8848		70.4995
11.8154		0.9452		0.0000		5.8890		392.9533		1.8904		70.5995
11.8234		0.9476		0.0000		5.8974		393.2194		1.8952		70.6995
11.8310		0.9498		0.0000		5.9054		393.4722		1.8996		70.7995
11.8390		0.9520		0.0000		5.9138		393.7382		1.9040		70.8995
11.8460		0.9542		0.0000		5.9224		393.9710		1.9084		70.9995
11.8522		0.9564		0.0000		5.9308		394.1772		1.9128		71.0995
11.8574		0.9584		0.0000		5.9394		394.3502		1.9168		71.1995
11.8636		0.9604		0.0000		5.9475		394.5564		1.9208		71.2995
11.8716		0.9624		0.0000		5.9556		394.8224		1.9248		71.3995
11.8786		0.9646		0.0000		5.9639		395.0552		1.9292		71.4995
11.8854		0.9660		0.0000		5.9720		395.2814		1.9320		71.5995
11.8910		0.9684		0.0000		5.9806		395.4676		1.9368		71.6995
11.8968		0.9704		0.0000		5.9890		395.6605		1.9408		71.7995
11.9024		0.9722		0.0000		5.9976		395.8468		1.9444		71.8995
11.9078		0.9742		0.0000		6.0062		396.0263		1.9484		71.9995
11.9166		0.9760		0.0000		6.0140		396.3190		1.9520		72.0995
11.9236		0.9780		0.0000		6.0224		396.5518		1.9560		72.1995
11.9300		0.9798		0.0000		6.0304		396.7647		1.9596		72.2995
11.9364		0.9816		0.0000		6.0388		396.9775		1.9632		72.3995
11.9416		0.9834		0.0000		6.0474		397.1505		1.9668		72.4995
11.9476		0.9852		0.0000		6.0558		397.3500		1.9704		72.5995
11.9534		0.9870		0.0000		6.0644		397.5429		1.9740		72.6995
11.9608		0.9888		0.0000		6.0728		397.7890		1.9776		72.7995
11.9666		0.9906		0.0000		6.0808		397.9819		1.9812		72.8995
11.9724		0.9924		0.0000		6.0889		398.1748		1.9848		72.9995
11.9788		0.9942		0.0000		6.0972		398.3876		1.9884		73.0995
11.9846		0.9960		0.0000		6.1056		398.5805		1.9920		73.1995
11.9914		0.9976		0.0000		6.1142		398.8067		1.9952		73.2995
11.9976		0.9992		0.0000		6.1223		399.0129		1.9984		73.3995
12.0042		1.0012		0.0000		6.1309		399.2324		2.0024		73.4995
12.0098		1.0028		0.0000		6.1393		399.4186		2.0056		73.5994
12.0162		1.0046		0.0000		6.1474		399.6315		2.0092		73.6994
12.0224		1.0060		0.0000		6.1551		399.8377		2.0120		73.7994
12.0302		1.0082		0.0000		6.1638		400.0971		2.0164		73.8994
12.0370		1.0100		0.0000		6.1724		400.3232		2.0200		73.9994
12.0412		1.0118		0.0000		6.1811		400.4629		2.0236		74.0994
12.0466		1.0136		0.0000		6.1894		400.6425		2.0272		74.1994
12.0514		1.0152		0.0000		6.1978		400.8022		2.0304		74.2994
12.0572		1.0170		0.0000		6.2058		400.9951		2.0340		74.3994
12.0648		1.0188		0.0000		6.2139		401.2478		2.0376		74.4994
12.0708		1.0206		0.0000		6.2222		401.4474		2.0412		74.5994
12.0766		1.0220		0.0000		6.2303		401.6403		2.0440		74.6994
12.0810		1.0238		0.0000		6.2389		401.7866		2.0476		74.7994
12.0854		1.0260		0.0000		6.2476		401.9329		2.0520		74.8994
12.0908		1.0276		0.0000		6.2559		402.1125		2.0552		74.9994
12.0974		1.0294		0.0000		6.2643		402.3320		2.0588		75.0994
12.1048		1.0312		0.0000		6.2724		402.5781		2.0624		75.1994
12.1104		1.0330		0.0000		6.2807		402.7644		2.0660		75.2994
12.1144		1.0348		0.0000		6.2888		402.8974		2.0696		75.3994
12.1198		1.0366		0.0000		6.2974		403.0770		2.0732		75.4994
12.1256		1.0384		0.0000		6.3060		403.2699		2.0768		75.5994
12.1310		1.0402		0.0000		6.3144		403.4495		2.0804		75.6994
12.1366		1.0420		0.0000		6.3228		403.6357		2.0840		75.7994
12.1416		1.0438		0.0000		6.3308		403.8020		2.0876		75.8994
12.1466		1.0450		0.0000		6.3386		403.9683		2.0900		75.9994
12.1518		1.0472		0.0000		6.3472		404.1412		2.0944		76.0994
12.1574		1.0488		0.0000		6.3556		404.3275		2.0976		76.1994
12.1646		1.0504		0.0000		6.3636		404.5670		2.1008		76.2994
12.1702		1.0524		0.0000		6.3729		404.7532		2.1048		76.3994
12.1756		1.0544		0.0000		6.3809		404.9328		2.1088		76.4994
12.1806		1.0562		0.0000		6.3893		405.0991		2.1124		76.5994
12.1852		1.0580		0.0000		6.3973		405.2520		2.1160		76.6994
12.1902		1.0596		0.0000		6.4054		405.4183		2.1192		76.7994
12.1954		1.0616		0.0000		6.4140		405.5913		2.1232		76.8994
12.2002		1.0634		0.0000		6.4224		405.7509		2.1268		76.9994
12.2032		1.0648		0.0000		6.4305		405.8507		2.1296		77.0994
12.2070		1.0670		0.0000		6.4394		405.9771		2.1340		77.1994
12.2124		1.0688		0.0000		6.4477		406.1567		2.1376		77.2994
12.2188		1.0706		0.0000		6.4558		406.3695		2.1412		77.3994
12.2258		1.0724		0.0000		6.4639		406.6023		2.1448		77.4994
12.2322		1.0742		0.0000		6.4722		406.8152		2.1484		77.5994
12.2368		1.0760		0.0000		6.4806		406.9681		2.1520		77.6994
12.2412		1.0778		0.0000		6.4889		407.1145		2.1556		77.7994
12.2458		1.0796		0.0000		6.4976		407.2675		2.1592		77.8994
12.2516		1.0816		0.0000		6.5059		407.4604		2.1632		77.9994
12.2586		1.0834		0.0000		6.5143		407.6932		2.1668		78.0994
12.2638		1.0848		0.0000		6.5220		407.8661		2.1696		78.1994
12.2684		1.0870		0.0000		6.5304		408.0191		2.1740		78.2994
12.2730		1.0886		0.0000		6.5388		408.1721		2.1772		78.3994
12.2776		1.0906		0.0000		6.5471		408.3251		2.1812		78.4994
12.2824		1.0924		0.0000		6.5557		408.4847		2.1848		78.5994
12.2886		1.0942		0.0000		6.5641		408.6909		2.1884		78.6994
12.2938		1.0958		0.0000		6.5722		408.8639		2.1916		78.7994
12.2990		1.0980		0.0000		6.5808		409.0368		2.1960		78.8994
12.3038		1.1000		0.0000		6.5889		409.1964		2.2000		78.9994
12.3082		1.1018		0.0000		6.5969		409.3427		2.2036		79.0994
12.3136		1.1036		0.0000		6.6053		409.5223		2.2072		79.1994
12.3178		1.1052		0.0000		6.6136		409.6620		2.2104		79.2994
12.3250		1.1076		0.0000		6.6223		409.9015		2.2152		79.3994
12.3306		1.1094		0.0000		6.6309		410.0877		2.2188		79.4994
12.3342		1.1114		0.0000		6.6393		410.2075		2.2228		79.5994
12.3388		1.1130		0.0000		6.6468		410.3604		2.2260		79.6994
12.3438		1.1152		0.0000		6.6554		410.5267		2.2304		79.7994
12.3500		1.1172		0.0000		6.6637		410.7329		2.2344		79.8994
12.3556		1.1192		0.0000		6.6721		410.9192		2.2384		79.9994
12.3582		1.1206		0.0000		6.6804		411.0056		2.2412		80.0993
12.3620		1.1230		0.0000		6.6891		411.1320		2.2460		80.1993
12.3652		1.1248		0.0000		6.6977		411.2384		2.2496		80.2993
12.3698		1.1264		0.0000		6.7052		411.3914		2.2528		80.3993
12.3768		1.1286		0.0000		6.7139		411.6242		2.2572		80.4993
12.3830		1.1306		0.0000		6.7219		411.8304		2.2612		80.5993
12.3880		1.1322		0.0000		6.7306		411.9967		2.2644		80.6993
12.3918		1.1342		0.0000		6.7389		412.1231		2.2684		80.7993
12.3962		1.1362		0.0000		6.7473		412.2694		2.2724		80.8993
12.4000		1.1380		0.0000		6.7559		412.3958		2.2760		80.9993
12.4062		1.1398		0.0000		6.7643		412.6020		2.2796		81.0993
12.4114		1.1418		0.0000		6.7723		412.7749		2.2836		81.1993
12.4158		1.1438		0.0000		6.7804		412.9213		2.2876		81.2993
12.4194		1.1456		0.0000		6.7887		413.0410		2.2912		81.3993
12.4232		1.1476		0.0000		6.7971		413.1674		2.2952		81.4993
12.4266		1.1492		0.0000		6.8054		413.2805		2.2984		81.5993
12.4350		1.1514		0.0000		6.8141		413.5598		2.3028		81.6993
12.4412		1.1534		0.0000		6.8224		413.7660		2.3068		81.7993
12.4454		1.1554		0.0000		6.8311		413.9057		2.3108		81.8993
12.4504		1.1570		0.0000		6.8386		414.0720		2.3140		81.9993
12.4558		1.1594		0.0000		6.8469		414.2516		2.3188		82.0993
12.4594		1.1612		0.0000		6.8556		414.3713		2.3224		82.1993
12.4630		1.1628		0.0000		6.8636		414.4911		2.3256		82.2993
12.4690		1.1652		0.0000		6.8725		414.6906		2.3304		82.3993
12.4726		1.1668		0.0000		6.8806		414.8103		2.3336		82.4993
12.4766		1.1690		0.0000		6.8892		414.9433		2.3380		82.5993
12.4818		1.1710		0.0000		6.8973		415.1163		2.3420		82.6993
12.4864		1.1726		0.0000		6.9051		415.2693		2.3452		82.7993
12.4916		1.1750		0.0000		6.9137		415.4422		2.3500		82.8993
12.4960		1.1768		0.0000		6.9221		415.5886		2.3536		82.9993
12.4994		1.1788		0.0000		6.9307		415.7016		2.3576		83.0993
12.5034		1.1806		0.0000		6.9391		415.8347		2.3612		83.1993
12.5080		1.1826		0.0000		6.9477		415.9876		2.3652		83.2993
12.5128		1.1844		0.0000		6.9558		416.1473		2.3688		83.3993
12.5186		1.1864		0.0000		6.9638		416.3401		2.3728		83.4993
12.5234		1.1884		0.0000		6.9722		416.4998		2.3768		83.5993
12.5272		1.1904		0.0000		6.9805		416.6262		2.3808		83.6993
12.5298		1.1920		0.0000		6.9886		416.7127		2.3840		83.7993
12.5352		1.1944		0.0000		6.9972		416.8922		2.3888		83.8993
12.5388		1.1962		0.0000		7.0059		417.0120		2.3924		83.9993
12.5438		1.1982		0.0000		7.0142		417.1783		2.3964		84.0993
12.5482		1.1998		0.0000		7.0220		417.3246		2.3996		84.1993
12.5526		1.2022		0.0000		7.0307		417.4709		2.4044		84.2993
12.5562		1.2038		0.0000		7.0384		417.5907		2.4076		84.3993
12.5610		1.2060		0.0000		7.0474		417.7503		2.4120		84.4993
12.5644		1.2078		0.0000		7.0554		417.8634		2.4156		84.5993
12.5706		1.2100		0.0000		7.0641		418.0695		2.4200		84.6993
12.5744		1.2118		0.0000		7.0724		418.1960		2.4236		84.7993
12.5796		1.2140		0.0000		7.0811		418.3689		2.4280		84.8993
12.5840		1.2160		0.0000		7.0891		418.5152		2.4320		84.9993
12.5882		1.2180		0.0000		7.0972		418.6549		2.4360		85.0993
12.5922		1.2198		0.0000		7.1055		418.7880		2.4396		85.1993
12.5952		1.2212		0.0000		7.1136		418.8877		2.4424		85.2993
12.6000		1.2236		0.0000		7.1222		419.0474		2.4472		85.3993
12.6024		1.2252		0.0000		7.1306		419.1272		2.4504		85.4993
12.6076		1.2276		0.0000		7.1392		419.3001		2.4552		85.5993
12.6122		1.2296		0.0000		7.1476		419.4531		2.4592		85.6993
12.6166		1.2316		0.0000		7.1554		419.5994		2.4632		85.7993
12.6206		1.2330		0.0000		7.1634		419.7325		2.4660		85.8993
12.6254		1.2354		0.0000		7.1721		419.8921		2.4708		85.9993
12.6294		1.2372		0.0000		7.1804		420.0251		2.4744		86.0993
12.6312		1.2388		0.0000		7.1888		420.0850		2.4776		86.1993
12.6354		1.2412		0.0000		7.1977		420.2247		2.4824		86.2993
12.6384		1.2428		0.0000		7.2055		420.3245		2.4856		86.3993
12.6428		1.2450		0.0000		7.2141		420.4708		2.4900		86.4993
12.6482		1.2464		0.0000		7.2219		420.6504		2.4928		86.5993
12.6544		1.2488		0.0000		7.2305		420.8566		2.4976		86.6992
12.6570		1.2504		0.0000		7.2386		420.9430		2.5008		86.7992
12.6620		1.2528		0.0000		7.2472		421.1093		2.5056		86.8992
12.6644		1.2542		0.0000		7.2556		421.1891		2.5084		86.9992
12.6694		1.2566		0.0000		7.2645		421.3554		2.5132		87.0992
12.6744		1.2586		0.0000		7.2726		421.5217		2.5172		87.1992
12.6804		1.2606		0.0000		7.2806		421.7213		2.5212		87.2992
12.6844		1.2620		0.0000		7.2884		421.8543		2.5240		87.3992
12.6888		1.2644		0.0000		7.2971		422.0006		2.5288		87.4992
12.6914		1.2660		0.0000		7.3054		422.0871		2.5320		87.5992
12.6972		1.2684		0.0000		7.3140		422.2800		2.5368		87.6992
12.7018		1.2704		0.0000		7.3227		422.4330		2.5408		87.7992
12.7050		1.2724		0.0000		7.3310		422.5394		2.5448		87.8992
12.7080		1.2740		0.0000		7.3388		422.6392		2.5480		87.9992
12.7108		1.2764		0.0000		7.3472		422.7323		2.5528		88.0992
12.7138		1.2780		0.0000		7.3552		422.8321		2.5560		88.1992
12.7188		1.2804		0.0000		7.3639		422.9984		2.5608		88.2992
12.7238		1.2824		0.0000		7.3722		423.1646		2.5648		88.3992
12.7278		1.2842		0.0000		7.3809		423.2977		2.5684		88.4992
12.7304		1.2862		0.0000		7.3895		423.3842		2.5724		88.5992
12.7342		1.2878		0.0000		7.3973		423.5105		2.5756		88.6992
12.7390		1.2902		0.0000		7.4056		423.6702		2.5804		88.7992
12.7428		1.2918		0.0000		7.4134		423.7965		2.5836		88.8992
12.7476		1.2942		0.0000		7.4220		423.9562		2.5884		88.9992
12.7510		1.2962		0.0000		7.4307		424.0693		2.5924		89.0992
12.7534		1.2978		0.0000		7.4388		424.1491		2.5956		89.1992
12.7580		1.3002		0.0000		7.4477		424.3021		2.6004		89.2992
12.7620		1.3016		0.0000		7.4557		424.4351		2.6032		89.3992
12.7670		1.3040		0.0000		7.4641		424.6014		2.6080		89.4992
12.7712		1.3058		0.0000		7.4722		424.7411		2.6116		89.5992
12.7754		1.3078		0.0000		7.4805		424.8808		2.6156		89.6992
12.7790		1.3098		0.0000		7.4889		425.0005		2.6196		89.7992
12.7826		1.3118		0.0000		7.4972		425.1202		2.6236		89.8992
12.7862		1.3138		0.0000		7.5059		425.2399		2.6276		89.9992
12.7900		1.3154		0.0000		7.5139		425.3663		2.6308		90.0992
12.7960		1.3178		0.0000		7.5228		425.5659		2.6356		90.1992
12.8010		1.3194		0.0000		7.5303		425.7321		2.6388		90.2992
12.8048		1.3218		0.0000		7.5390		425.8585		2.6436		90.3992
12.8072		1.3236		0.0000		7.5468		425.9383		2.6472		90.4992
12.8116		1.3260		0.0000		7.5554		426.0847		2.6520		90.5992
12.8144		1.3280		0.0000		7.5640		426.1778		2.6560		90.6992
12.8172		1.3296		0.0000		7.5721		426.2709		2.6592		90.7992
12.8210		1.3320		0.0000		7.5810		426.3973		2.6640		90.8992
12.8248		1.3340		0.0000		7.5891		426.5237		2.6680		90.9992
12.8284		1.3360		0.0000		7.5972		426.6434		2.6720		91.0992
12.8314		1.3376		0.0000		7.6052		426.7432		2.6752		91.1992
12.8366		1.3400		0.0000		7.6136		426.9161		2.6800		91.2992
12.8396		1.3416		0.0000		7.6222		427.0159		2.6832		91.3992
12.8450		1.3440		0.0000		7.6308		427.1955		2.6880		91.4992
12.8472		1.3458		0.0000		7.6389		427.2687		2.6916		91.5992
12.8508		1.3482		0.0000		7.6478		427.3884		2.6964		91.6992
12.8544		1.3500		0.0000		7.6559		427.5081		2.7000		91.7992
12.8588		1.3516		0.0000		7.6637		427.6544		2.7032		91.8992
12.8640		1.3540		0.0000		7.6720		427.8274		2.7080		91.9992
12.8678		1.3560		0.0000		7.6807		427.9538		2.7120		92.0992
12.8696		1.3576		0.0000		7.6887		428.0136		2.7152		92.1992
12.8732		1.3600		0.0000		7.6974		428.1334		2.7200		92.2992
12.8760		1.3620		0.0000		7.7060		428.2265		2.7240		92.3992
12.8798		1.3636		0.0000		7.7138		428.3528		2.7272		92.4992
12.8860		1.3662		0.0000		7.7224		428.5591		2.7324		92.5992
12.8904		1.3678		0.0000		7.7302		428.7054		2.7356		92.6992
12.8944		1.3702		0.0000		7.7388		428.8384		2.7404		92.7992
12.8964		1.3718		0.0000		7.7469		428.9049		2.7436		92.8992
12.8998		1.3744		0.0000		7.7558		429.0180		2.7488		92.9992
12.9024		1.3760		0.0000		7.7639		429.1045		2.7520		93.0992
12.9086		1.3786		0.0000		7.7725		429.3107		2.7572		93.1992
12.9130		1.3806		0.0000		7.7809		429.4570		2.7612		93.2991
12.9158		1.3826		0.0000		7.7890		429.5501		2.7652		93.3991
12.9190		1.3846		0.0000		7.7970		429.6566		2.7692		93.4991
12.9210		1.3866		0.0000		7.8057		429.7231		2.7732		93.5991
12.9224		1.3882		0.0000		7.8137		429.7696		2.7764		93.6991
12.9266		1.3906		0.0000		7.8227		429.9093		2.7812		93.7991
12.9302		1.3924		0.0000		7.8310		430.0291		2.7848		93.8991
12.9342		1.3942		0.0000		7.8391		430.1621		2.7884		93.9991
12.9384		1.3966		0.0000		7.8474		430.3018		2.7932		94.0991
12.9416		1.3982		0.0000		7.8552		430.4082		2.7964		94.1991
12.9458		1.4006		0.0000		7.8638		430.5479		2.8012		94.2991
12.9486		1.4022		0.0000		7.8719		430.6410		2.8044		94.3991
12.9532		1.4046		0.0000		7.8808		430.7940		2.8092		94.4991
12.9552		1.4066		0.0000		7.8892		430.8605		2.8132		94.5991
12.9582		1.4086		0.0000		7.8975		430.9603		2.8172		94.6991
12.9610		1.4106		0.0000		7.9059		431.0534		2.8212		94.7991
12.9656		1.4124		0.0000		7.9137		431.2064		2.8248		94.8991
12.9718		1.4148		0.0000		7.9223		431.4126		2.8296		94.9991
12.9758		1.4168		0.0000		7.9307		431.5456		2.8336		95.0991
12.9778		1.4186		0.0000		7.9387		431.6121		2.8372		95.1991
12.9816		1.4210		0.0000		7.9476		431.7385		2.8420		95.2991
12.9850		1.4230		0.0000		7.9560		431.8516		2.8460		95.3991
12.9876		1.4246		0.0000		7.9641		431.9380		2.8492		95.4991
12.9924		1.4272		0.0000		7.9724		432.0977		2.8544		95.5991
12.9960		1.4288		0.0000		7.9802		432.2174		2.8576		95.6991
13.0000		1.4312		0.0000		7.9888		432.3504		2.8624		95.7991
13.0032		1.4332		0.0000		7.9972		432.4568		2.8664		95.8991
13.0062		1.4352		0.0000		8.0058		432.5566		2.8704		95.9991
13.0110		1.4370		0.0000		8.0142		432.7163		2.8740		96.0991
13.0148		1.4392		0.0000		8.0228		432.8427		2.8784		96.1991
13.0184		1.4412		0.0000		8.0309		432.9624		2.8824		96.2991
13.0206		1.4434		0.0000		8.0392		433.0356		2.8868		96.3991
13.0230		1.4450		0.0000		8.0467		433.1154		2.8900		96.4991
13.0256		1.4476		0.0000		8.0554		433.2018		2.8952		96.5991
13.0270		1.4492		0.0000		8.0637		433.2484		2.8984		96.6991
13.0328		1.4516		0.0000		8.0724		433.4413		2.9032		96.7991
13.0354		1.4532		0.0000		8.0807		433.5278		2.9064		96.8991
13.0392		1.4558		0.0000		8.0893		433.6541		2.9116		96.9991
13.0418		1.4578		0.0000		8.0977		433.7406		2.9156		97.0991
13.0448		1.4598		0.0000		8.1055		433.8404		2.9196		97.1991
13.0484		1.4618		0.0000		8.1138		433.9601		2.9236		97.2991
13.0522		1.4638		0.0000		8.1222		434.0865		2.9276		97.3991
13.0556		1.4660		0.0000		8.1305		434.1996		2.9320		97.4991
13.0576		1.4680		0.0000		8.1392		434.2661		2.9360		97.5991
13.0600		1.4700		0.0000		8.1478		434.3459		2.9400		97.6991
13.0630		1.4720		0.0000		8.1559		434.4457		2.9440		97.7991
13.0678		1.4742		0.0000		8.1639		434.6053		2.9484		97.8991
13.0720		1.4758		0.0000		8.1720		434.7450		2.9516		97.9991
13.0768		1.4782		0.0000		8.1806		434.9046		2.9564		98.0991
13.0800		1.4802		0.0000		8.1890		435.0110		2.9604		98.1991
13.0822		1.4822		0.0000		8.1976		435.0842		2.9644		98.2991
13.0850		1.4844		0.0000		8.2060		435.1773		2.9688		98.3991
13.0876		1.4864		0.0000		8.2143		435.2638		2.9728		98.4991
13.0918		1.4880		0.0000		8.2221		435.4035		2.9760		98.5991
13.0962		1.4906		0.0000		8.2308		435.5498		2.9812		98.6991
13.0994		1.4928		0.0000		8.2388		435.6562		2.9856		98.7991
13.1022		1.4948		0.0000		8.2472		435.7494		2.9896		98.8991
13.1048		1.4968		0.0000		8.2558		435.8358		2.9936		98.9991
13.1076		1.4984		0.0000		8.2639		435.9290		2.9968		99.0991
13.1118		1.5010		0.0000		8.2728		436.0687		3.0020		99.1991
13.1150		1.5028		0.0000		8.2806		436.1751		3.0056		99.2991
13.1190		1.5052		0.0000		8.2892		436.3081		3.0104		99.3991
13.1216		1.5074		0.0000		8.2973		436.3946		3.0148		99.4991
13.1250		1.5094		0.0000		8.3053		436.5077		3.0188		99.5991
13.1282		1.5114		0.0000		8.3140		436.6141		3.0228		99.6991
13.1314		1.5136		0.0000		8.3226		436.7205		3.0272		99.7990
13.1346		1.5158		0.0000		8.3310		436.8269		3.0316		99.8990
13.1374		1.5178		0.0000		8.3393		436.9200		3.0356		99.9990
13.1394		1.5200		0.0000		8.3477		436.9865		3.0400		100.0990
13.1420		1.5216		0.0000		8.3555		437.0731		3.0432		100.1990
13.1462		1.5240		0.0000		8.3638		437.2127		3.0480		100.2990
13.1504		1.5260		0.0000		8.3722		437.3524		3.0520		100.3990
13.1532		1.5282		0.0000		8.3808		437.4455		3.0564		100.4990
13.1546		1.5302		0.0000		8.3892		437.4921		3.0604		100.5990
13.1572		1.5324		0.0000		8.3978		437.5786		3.0648		100.6990
13.1606		1.5344		0.0000		8.4061		437.6916		3.0688		100.7990
13.1658		1.5366		0.0000		8.4142		437.8646		3.0732		100.8990
13.1716		1.5386		0.0000		8.4223		438.0575		3.0772		100.9990
13.1750		1.5408		0.0000		8.4306		438.1706		3.0816		101.0990
13.1766		1.5428		0.0000		8.4390		438.2237		3.0856		101.1990
13.1776		1.5450		0.0000		8.4473		438.2570		3.0900		101.2990
13.1798		1.5470		0.0000		8.4560		438.3302		3.0940		101.3990
13.1822		1.5488		0.0000		8.4640		438.4100		3.0976		101.4990
13.1864		1.5514		0.0000		8.4727		438.5497		3.1028		101.5990
13.1902		1.5534		0.0000		8.4807		438.6761		3.1068		101.6990
13.1936		1.5556		0.0000		8.4888		438.7891		3.1112		101.7990
13.1958		1.5576		0.0000		8.4972		438.8623		3.1152		101.8990
13.1982		1.5598		0.0000		8.5058		438.9421		3.1196		101.9990
13.2006		1.5618		0.0000		8.5141		439.0219		3.1236		102.0990
13.2036		1.5638		0.0000		8.5228		439.1217		3.1276		102.1990
13.2078		1.5658		0.0000		8.5311		439.2614		3.1316		102.2990
13.2106		1.5674		0.0000		8.5389		439.3545		3.1348		102.3990
13.2150		1.5700		0.0000		8.5473		439.5009		3.1400		102.4990
13.2180		1.5722		0.0000		8.5556		439.6006		3.1444		102.5990
13.2208		1.5742		0.0000		8.5640		439.6938		3.1484		102.6990
13.2244		1.5764		0.0000		8.5723		439.8134		3.1528		102.7990
13.2270		1.5786		0.0000		8.5810		439.9000		3.1572		102.8990
13.2296		1.5806		0.0000		8.5893		439.9864		3.1612		102.9990
13.2314		1.5828		0.0000		8.5980		440.0463		3.1656		103.0990
13.2340		1.5848		0.0000		8.6057		440.1328		3.1696		103.1990
13.2368		1.5870		0.0000		8.6138		440.2259		3.1740		103.2990
13.2410		1.5890		0.0000		8.6221		440.3656		3.1780		103.3990
13.2430		1.5906		0.0000		8.6305		440.4321		3.1812		103.4990
13.2458		1.5932		0.0000		8.6391		440.5252		3.1864		103.5990
13.2480		1.5954		0.0000		8.6478		440.5984		3.1908		103.6990
13.2502		1.5974		0.0000		8.6561		440.6715		3.1948		103.7990
13.2548		1.5996		0.0000		8.6642		440.8245		3.1992		103.8990
13.2594		1.6018		0.0000		8.6723		440.9775		3.2036		103.9990
13.2638		1.6038		0.0000		8.6806		441.1238		3.2076		104.0990
13.2662		1.6060		0.0000		8.6890		441.2036		3.2120		104.1990
13.2682		1.6080		0.0000		8.6973		441.2702		3.2160		104.2990
13.2702		1.6100		0.0000		8.7060		441.3367		3.2200		104.3990
13.2722		1.6122		0.0000		8.7146		441.4032		3.2244		104.4990
13.2766		1.6138		0.0000		8.7224		441.5495		3.2276		104.5990
13.2808		1.6164		0.0000		8.7310		441.6892		3.2328		104.6990
13.2832		1.6186		0.0000		8.7388		441.7690		3.2372		104.7990
13.2844		1.6206		0.0000		8.7471		441.8089		3.2412		104.8990
13.2854		1.6228		0.0000		8.7558		441.8422		3.2456		104.9990
13.2882		1.6250		0.0000		8.7641		441.9353		3.2500		105.0990
13.2904		1.6266		0.0000		8.7725		442.0085		3.2532		105.1990
13.2958		1.6292		0.0000		8.7811		442.1881		3.2584		105.2990
13.2984		1.6314		0.0000		8.7895		442.2745		3.2628		105.3990
13.3014		1.6334		0.0000		8.7972		442.3743		3.2668		105.4990
13.3040		1.6356		0.0000		8.8056		442.4608		3.2712		105.5990
13.3058		1.6372		0.0000		8.8137		442.5206		3.2744		105.6990
13.3090		1.6398		0.0000		8.8223		442.6271		3.2796		105.7990
13.3100		1.6420		0.0000		8.8309		442.6603		3.2840		105.8990
13.3126		1.6440		0.0000		8.8393		442.7468		3.2880		105.9990
13.3150		1.6462		0.0000		8.8476		442.8266		3.2924		106.0990
13.3174		1.6482		0.0000		8.8560		442.9064		3.2964		106.1990
13.3210		1.6502		0.0000		8.8641		443.0262		3.3004		106.2990
13.3258		1.6522		0.0000		8.8721		443.1858		3.3044		106.3989
13.3306		1.6544		0.0000		8.8805		443.3454		3.3088		106.4989
13.3334		1.6564		0.0000		8.8891		443.4386		3.3128		106.5989
13.3354		1.6586		0.0000		8.8975		443.5051		3.3172		106.6989
13.3360		1.6602		0.0000		8.9058		443.5250		3.3204		106.7989
13.3382		1.6628		0.0000		8.9145		443.5982		3.3256		106.8989
13.3414		1.6650		0.0000		8.9225		443.7046		3.3300		106.9989
13.3442		1.6666		0.0000		8.9303		443.7978		3.3332		107.0989
13.3484		1.6692		0.0000		8.9389		443.9374		3.3384		107.1989
13.3514		1.6714		0.0000		8.9473		444.0372		3.3428		107.2989
13.3534		1.6730		0.0000		8.9556		444.1037		3.3460		107.3989
13.3560		1.6756		0.0000		8.9643		444.1902		3.3512		107.4989
13.3594		1.6778		0.0000		8.9729		444.3033		3.3556		107.5989
13.3630		1.6800		0.0000		8.9810		444.4230		3.3600		107.6989
13.3652		1.6822		0.0000		8.9891		444.4962		3.3644		107.7989
13.3666		1.6838		0.0000		8.9968		444.5427		3.3676		107.8989
13.3702		1.6864		0.0000		9.0058		444.6624		3.3728		107.9989
13.3740		1.6886		0.0000		9.0141		444.7888		3.3772		108.0989
13.3768		1.6908		0.0000		9.0225		444.8819		3.3816		108.1989
13.3784		1.6924		0.0000		9.0308		444.9352		3.3848		108.2989
13.3798		1.6950		0.0000		9.0395		444.9817		3.3900		108.3989
13.3814		1.6970		0.0000		9.0475		445.0349		3.3940		108.4989
13.3838		1.6992		0.0000		9.0556		445.1147		3.3984		108.5989
13.3880		1.7014		0.0000		9.0639		445.2544		3.4028		108.6989
13.3918		1.7034		0.0000		9.0723		445.3808		3.4068		108.7989
13.3934		1.7056		0.0000		9.0809		445.4341		3.4112		108.8989
13.3942		1.7072		0.0000		9.0890		445.4607		3.4144		108.9989
13.3962		1.7098		0.0000		9.0976		445.5272		3.4196		109.0989
13.3990		1.7118		0.0000		9.1060		445.6203		3.4236		109.1989
13.4030		1.7140		0.0000		9.1140		445.7533		3.4280		109.2989
13.4076		1.7162		0.0000		9.1224		445.9063		3.4324		109.3989
13.4104		1.7180		0.0000		9.1302		445.9994		3.4360		109.4989
13.4134		1.7206		0.0000		9.1391		446.0992		3.4412		109.5989
13.4148		1.7228		0.0000		9.1477		446.1457		3.4456		109.6989
13.4164		1.7248		0.0000		9.1561		446.1989		3.4496		109.7989
13.4184		1.7270		0.0000		9.1644		446.2655		3.4540		109.8989
13.4212		1.7292		0.0000		9.1725		446.3586		3.4584		109.9989
13.4248		1.7308		0.0000		9.1803		446.4783		3.4616		110.0989
13.4284		1.7336		0.0000		9.1889		446.5981		3.4672		110.1989
13.4312		1.7356		0.0000		9.1973		446.6912		3.4712		110.2989
13.4334		1.7378		0.0000		9.2059		446.7643		3.4756		110.3989
13.4354		1.7398		0.0000		9.2143		446.8308		3.4796		110.4989
13.4378		1.7414		0.0000		9.2223		446.9107		3.4828		110.5989
13.4412		1.7442		0.0000		9.2313		447.0238		3.4884		110.6989
13.4450		1.7464		0.0000		9.2390		447.1501		3.4928		110.7989
13.4464		1.7484		0.0000		9.2474		447.1967		3.4968		110.8989
13.4480		1.7506		0.0000		9.2555		447.2499		3.5012		110.9989
13.4512		1.7528		0.0000		9.2641		447.3563		3.5056		111.0989
13.4530		1.7546		0.0000		9.2724		447.4162		3.5092		111.1989
13.4562		1.7572		0.0000		9.2811		447.5226		3.5144		111.2989
13.4570		1.7592		0.0000		9.2894		447.5492		3.5184		111.3989
13.4594		1.7616		0.0000		9.2978		447.6291		3.5232		111.4989
13.4616		1.7638		0.0000		9.3056		447.7022		3.5276		111.5989
13.4646		1.7658		0.0000		9.3139		447.8020		3.5316		111.6989
13.4676		1.7680		0.0000		9.3223		447.9018		3.5360		111.7989
13.4690		1.7698		0.0000		9.3306		447.9483		3.5396		111.8989
13.4718		1.7724		0.0000		9.3393		448.0414		3.5448		111.9989
13.4732		1.7740		0.0000		9.3476		448.0880		3.5480		112.0989
13.4778		1.7766		0.0000		9.3560		448.2410		3.5532		112.1989
13.4816		1.7784		0.0000		9.3637		448.3674		3.5568		112.2989
13.4858		1.7810		0.0000		9.3724		448.5070		3.5620		112.3989
13.4878		1.7832		0.0000		9.3807		448.5735		3.5664		112.4989
13.4890		1.7852		0.0000		9.3891		448.6135		3.5704		112.5989
13.4904		1.7874		0.0000		9.3974		448.6600		3.5748		112.6989
13.4920		1.7896		0.0000		9.4061		448.7132		3.5792		112.7989
13.4952		1.7918		0.0000		9.4144		448.8197		3.5836		112.8988
13.4972		1.7940		0.0000		9.4228		448.8862		3.5880		112.9988
13.4992		1.7962		0.0000		9.4306		448.9527		3.5924		113.0988
13.5010		1.7984		0.0000		9.4389		449.0126		3.5968		113.1988
13.5024		1.8004		0.0000		9.4473		449.0591		3.6008		113.2988
13.5042		1.8022		0.0000		9.4553		449.1190		3.6044		113.3988
13.5070		1.8048		0.0000		9.4643		449.2121		3.6096		113.4988
13.5100		1.8070		0.0000		9.4726		449.3119		3.6140		113.5988
13.5118		1.8086		0.0000		9.4807		449.3717		3.6172		113.6988
13.5140		1.8112		0.0000		9.4890		449.4449		3.6224		113.7988
13.5166		1.8134		0.0000		9.4971		449.5314		3.6268		113.8988
13.5192		1.8154		0.0000		9.5054		449.6179		3.6308		113.9988
13.5210		1.8172		0.0000		9.5135		449.6777		3.6344		114.0988
13.5246		1.8198		0.0000		9.5224		449.7975		3.6396		114.1988
13.5264		1.8218		0.0000		9.5311		449.8573		3.6436		114.2988
13.5274		1.8240		0.0000		9.5394		449.8906		3.6480		114.3988
13.5296		1.8254		0.0000		9.5472		449.9637		3.6508		114.4988
13.5324		1.8280		0.0000		9.5556		450.0569		3.6560		114.5988
13.5370		1.8302		0.0000		9.5639		450.2098		3.6604		114.6988
13.5416		1.8324		0.0000		9.5723		450.3628		3.6648		114.7988
13.5440		1.8346		0.0000		9.5806		450.4426		3.6692		114.8988
13.5446		1.8362		0.0000		9.5890		450.4626		3.6724		114.9988
13.5450		1.8388		0.0000		9.5976		450.4759		3.6776		115.0988
13.5470		1.8410		0.0000		9.6060		450.5424		3.6820		115.1988
13.5498		1.8432		0.0000		9.6140		450.6355		3.6864		115.2988
13.5534		1.8454		0.0000		9.6224		450.7553		3.6908		115.3988
13.5562		1.8476		0.0000		9.6304		450.8484		3.6952		115.4988
13.5584		1.8498		0.0000		9.6391		450.9216		3.6996		115.5988
13.5602		1.8520		0.0000		9.6474		450.9814		3.7040		115.6988
13.5616		1.8540		0.0000		9.6558		451.0280		3.7080		115.7988
13.5632		1.8562		0.0000		9.6644		451.0812		3.7124		115.8988
13.5660		1.8578		0.0000		9.6722		451.1743		3.7156		115.9988
13.5694		1.8604		0.0000		9.6808		451.2874		3.7208		116.0988
13.5712		1.8628		0.0000		9.6889		451.3473		3.7256		116.1988
13.5730		1.8648		0.0000		9.6972		451.4071		3.7296		116.2988
13.5742		1.8670		0.0000		9.7056		451.4470		3.7340		116.3988
13.5762		1.8690		0.0000		9.7140		451.5135		3.7380		116.4988
13.5786		1.8710		0.0000		9.7226		451.5934		3.7420		116.5988
13.5810		1.8732		0.0000		9.7309		451.6732		3.7464		116.6988
13.5830		1.8754		0.0000		9.7390		451.7397		3.7508		116.7988
13.5848		1.8776		0.0000		9.7474		451.7996		3.7552		116.8988
13.5874		1.8798		0.0000		9.7554		451.8860		3.7596		116.9988
13.5896		1.8818		0.0000		9.7638		451.9592		3.7636		117.0988
13.5916		1.8840		0.0000		9.7724		452.0257		3.7680		117.1988
13.5934		1.8862		0.0000		9.7808		452.0856		3.7724		117.2988
13.5950		1.8884		0.0000		9.7894		452.1388		3.7768		117.3988
13.5972		1.8904		0.0000		9.7978		452.2120		3.7808		117.4988
13.5996		1.8926		0.0000		9.8058		452.2918		3.7852		117.5988
13.6028		1.8948		0.0000		9.8139		452.3982		3.7896		117.6988
13.6056		1.8964		0.0000		9.8217		452.4913		3.7928		117.7988
13.6090		1.8990		0.0000		9.8306		452.6044		3.7980		117.8988
13.6108		1.9012		0.0000		9.8392		452.6642		3.8024		117.9988
13.6124		1.9028		0.0000		9.8473		452.7175		3.8056		118.0988
13.6142		1.9054		0.0000		9.8562		452.7773		3.8108		118.1988
13.6156		1.9076		0.0000		9.8640		452.8239		3.8152		118.2988
13.6188		1.9098		0.0000		9.8724		452.9303		3.8196		118.3988
13.6216		1.9118		0.0000		9.8804		453.0234		3.8236		118.4988
13.6242		1.9138		0.0000		9.8888		453.1099		3.8276		118.5988
13.6252		1.9162		0.0000		9.8974		453.1432		3.8324		118.6988
13.6264		1.9182		0.0000		9.9058		453.1831		3.8364		118.7988
13.6286		1.9200		0.0000		9.9141		453.2563		3.8400		118.8988
13.6328		1.9226		0.0000		9.9230		453.3959		3.8452		118.9988
13.6362		1.9248		0.0000		9.9308		453.5090		3.8496		119.0988
13.6378		1.9270		0.0000		9.9389		453.5622		3.8540		119.1988
13.6390		1.9292		0.0000		9.9472		453.6021		3.8584		119.2988
13.6396		1.9308		0.0000		9.9553		453.6221		3.8616		119.3988
13.6416		1.9334		0.0000		9.9639		453.6886		3.8668		119.4987
13.6440		1.9356		0.0000		9.9726		453.7684		3.8712		119.5987
13.6456		1.9378		0.0000		9.9812		453.8216		3.8756		119.6987
13.6474		1.9400		0.0000		9.9893		453.8815		3.8800		119.7987
13.6488		1.9420		0.0000		9.9973		453.9280		3.8840		119.8987
13.6506		1.9438		0.0000		10.0051		453.9879		3.8876		119.9987
13.6536		1.9464		0.0000		10.0138		454.0877		3.8928		120.0987
13.6566		1.9486		0.0000		10.0224		454.1875		3.8972		120.1987
13.6594		1.9508		0.0000		10.0308		454.2806		3.9016		120.2987
13.6606		1.9530		0.0000		10.0394		454.3205		3.9060		120.3987
13.6630		1.9550		0.0000		10.0477		454.4003		3.9100		120.4987
13.6648		1.9570		0.0000		10.0558		454.4602		3.9140		120.5987
13.6680		1.9592		0.0000		10.0639		454.5666		3.9184		120.6987
13.6710		1.9614		0.0000		10.0722		454.6664		3.9228		120.7987
13.6736		1.9636		0.0000		10.0806		454.7528		3.9272		120.8987
13.6750		1.9660		0.0000		10.0889		454.7994		3.9320		120.9987
13.6746		1.9676		0.0000		10.0973		454.7861		3.9352		121.0987
13.6772		1.9702		0.0000		10.1059		454.8726		3.9404		121.1987
13.6790		1.9724		0.0000		10.1146		454.9324		3.9448		121.2987
13.6816		1.9742		0.0000		10.1220		455.0189		3.9484		121.3987
13.6844		1.9768		0.0000		10.1304		455.1120		3.9536		121.4987
13.6862		1.9788		0.0000		10.1388		455.1719		3.9576		121.5987
13.6870		1.9806		0.0000		10.1468		455.1985		3.9612		121.6987
13.6884		1.9832		0.0000		10.1557		455.2451		3.9664		121.7987
13.6904		1.9854		0.0000		10.1644		455.3116		3.9708		121.8987
13.6920		1.9870		0.0000		10.1724		455.3648		3.9740		121.9987
13.6952		1.9896		0.0000		10.1808		455.4712		3.9792		122.0987
13.6982		1.9918		0.0000		10.1889		455.5710		3.9836		122.1987
13.6996		1.9936		0.0000		10.1969		455.6176		3.9872		122.2987
13.7010		1.9962		0.0000		10.2056		455.6641		3.9924		122.3987
13.7024		1.9984		0.0000		10.2142		455.7107		3.9968		122.4987
13.7044		2.0000		0.0000		10.2223		455.7772		4.0000		122.5987
13.7078		2.0026		0.0000		10.2309		455.8903		4.0052		122.6987
13.7106		2.0048		0.0000		10.2393		455.9834		4.0096		122.7987
13.7122		2.0070		0.0000		10.2476		456.0366		4.0140		122.8987
13.7138		2.0092		0.0000		10.2557		456.0898		4.0184		122.9987
13.7164		2.0114		0.0000		10.2640		456.1763		4.0228		123.0987
13.7192		2.0136		0.0000		10.2727		456.2694		4.0272		123.1987
13.7216		2.0154		0.0000		10.2804		456.3492		4.0308		123.2987
13.7234		2.0180		0.0000		10.2894		456.4091		4.0360		123.3987
13.7244		2.0202		0.0000		10.2980		456.4423		4.0404		123.4987
13.7264		2.0224		0.0000		10.3061		456.5089		4.0448		123.5987
13.7282		2.0246		0.0000		10.3141		456.5687		4.0492		123.6987
13.7312		2.0268		0.0000		10.3222		456.6685		4.0536		123.7987
13.7334		2.0290		0.0000		10.3308		456.7417		4.0580		123.8987
13.7344		2.0308		0.0000		10.3386		456.7749		4.0616		123.9987
13.7366		2.0334		0.0000		10.3476		456.8481		4.0668		124.0987
13.7378		2.0358		0.0000		10.3562		456.8880		4.0716		124.1987
13.7394		2.0380		0.0000		10.3643		456.9412		4.0760		124.2987
13.7416		2.0396		0.0000		10.3720		457.0144		4.0792		124.3987
13.7438		2.0422		0.0000		10.3804		457.0876		4.0844		124.4987
13.7456		2.0444		0.0000		10.3890		457.1474		4.0888		124.5987
13.7470		2.0466		0.0000		10.3974		457.1939		4.0932		124.6987
13.7484		2.0488		0.0000		10.4060		457.2405		4.0976		124.7987
13.7500		2.0510		0.0000		10.4144		457.2937		4.1020		124.8987
13.7520		2.0532		0.0000		10.4230		457.3603		4.1064		124.9987
13.7546		2.0552		0.0000		10.4311		457.4467		4.1104		125.0987
13.7556		2.0574		0.0000		10.4394		457.4800		4.1148		125.1987
13.7574		2.0596		0.0000		10.4475		457.5398		4.1192		125.2987
13.7594		2.0618		0.0000		10.4556		457.6064		4.1236		125.3987
13.7596		2.0636		0.0000		10.4639		457.6130		4.1272		125.4987
13.7632		2.0662		0.0000		10.4728		457.7327		4.1324		125.5987
13.7656		2.0686		0.0000		10.4812		457.8126		4.1372		125.6987
13.7678		2.0708		0.0000		10.4895		457.8857		4.1416		125.7987
13.7696		2.0730		0.0000		10.4979		457.9456		4.1460		125.8987
13.7718		2.0752		0.0000		10.5060		458.0188		4.1504		125.9986
13.7736		2.0774		0.0000		10.5140		458.0786		4.1548		126.0986
13.7770		2.0796		0.0000		10.5224		458.1917		4.1592		126.1986
13.7794		2.0818		0.0000		10.5310		458.2715		4.1636		126.2986
13.7802		2.0834		0.0000		10.5391		458.2981		4.1668		126.3986
13.7806		2.0862		0.0000		10.5480		458.3114		4.1724		126.4986
13.7814		2.0880		0.0000		10.5558		458.3380		4.1760		126.5986
13.7846		2.0906		0.0000		10.5644		458.4445		4.1812		126.6986
13.7876		2.0924		0.0000		10.5722		458.5442		4.1848		126.7986
13.7910		2.0952		0.0000		10.5805		458.6573		4.1904		126.8986
13.7928		2.0974		0.0000		10.5892		458.7172		4.1948		126.9986
13.7932		2.0996		0.0000		10.5975		458.7305		4.1992		127.0986
13.7940		2.1018		0.0000		10.6062		458.7571		4.2036		127.1986
13.7942		2.1040		0.0000		10.6145		458.7637		4.2080		127.2986
13.7966		2.1060		0.0000		10.6229		458.8436		4.2120		127.3986
13.7982		2.1082		0.0000		10.6309		458.8968		4.2164		127.4986
13.8000		2.1104		0.0000		10.6390		458.9566		4.2208		127.5986
13.8024		2.1126		0.0000		10.6474		459.0364		4.2252		127.6986
13.8028		2.1144		0.0000		10.6557		459.0497		4.2288		127.7986
13.8040		2.1170		0.0000		10.6644		459.0897		4.2340		127.8986
13.8052		2.1192		0.0000		10.6730		459.1295		4.2384		127.9986
13.8084		2.1214		0.0000		10.6813		459.2360		4.2428		128.0986
13.8102		2.1236		0.0000		10.6894		459.2958		4.2472		128.1986
13.8112		2.1258		0.0000		10.6975		459.3291		4.2516		128.2986
13.8128		2.1280		0.0000		10.7055		459.3823		4.2560		128.3986
13.8142		2.1302		0.0000		10.7142		459.4289		4.2604		128.4986
13.8172		2.1324		0.0000		10.7225		459.5287		4.2648		128.5986
13.8196		2.1346		0.0000		10.7312		459.6085		4.2692		128.6987
13.8216		2.1362		0.0000		10.7392		459.6750		4.2724		128.7987
13.8224		2.1390		0.0000		10.7479		459.7016		4.2780		128.8987
13.8248		2.1412		0.0000		10.7559		459.7814		4.2824		128.9987
13.8264		2.1434		0.0000		10.7640		459.8346		4.2868		129.0987
13.8286		2.1456		0.0000		10.7724		459.9078		4.2912		129.1987
13.8308		2.1478		0.0000		10.7807		459.9810		4.2956		129.2987
13.8318		2.1500		0.0000		10.7893		460.0142		4.3000		129.3987
13.8332		2.1522		0.0000		10.7977		460.0608		4.3044		129.4987
13.8344		2.1544		0.0000		10.8063		460.1007		4.3088		129.5987
13.8366		2.1566		0.0000		10.8144		460.1739		4.3132		129.6987
13.8396		2.1588		0.0000		10.8225		460.2736		4.3176		129.7987
13.8420		2.1604		0.0000		10.8305		460.3535		4.3208		129.8987
13.8438		2.1630		0.0000		10.8392		460.4133		4.3260		129.9987
13.8444		2.1652		0.0000		10.8475		460.4333		4.3304		130.0987
13.8450		2.1674		0.0000		10.8562		460.4532		4.3348		130.1987
13.8462		2.1696		0.0000		10.8645		460.4931		4.3392		130.2988
13.8490		2.1718		0.0000		10.8729		460.5862		4.3436		130.3988
13.8530		2.1742		0.0000		10.8809		460.7193		4.3484		130.4988
13.8554		2.1764		0.0000		10.8893		460.7991		4.3528		130.5988
13.8564		2.1786		0.0000		10.8973		460.8323		4.3572		130.6988
13.8572		2.1808		0.0000		10.9057		460.8589		4.3616		130.7988
13.8570		2.1826		0.0000		10.9140		460.8523		4.3652		130.8988
13.8594		2.1852		0.0000		10.9227		460.9321		4.3704		130.9988
13.8620		2.1876		0.0000		10.9310		461.0186		4.3752		131.0988
13.8632		2.1898		0.0000		10.9394		461.0585		4.3796		131.1988
13.8646		2.1920		0.0000		10.9475		461.1051		4.3840		131.2988
13.8656		2.1938		0.0000		10.9552		461.1383		4.3876		131.3988
13.8672		2.1964		0.0000		10.9642		461.1915		4.3928		131.4988
13.8706		2.1986		0.0000		10.9722		461.3046		4.3972		131.5988
13.8718		2.2004		0.0000		10.9809		461.3445		4.4008		131.6988
13.8742		2.2030		0.0000		10.9895		461.4243		4.4060		131.7988
13.8754		2.2054		0.0000		10.9979		461.4642		4.4108		131.8988
13.8760		2.2076		0.0000		11.0059		461.4842		4.4152		131.9989
13.8774		2.2094		0.0000		11.0134		461.5308		4.4188		132.0989
13.8788		2.2120		0.0000		11.0223		461.5773		4.4240		132.1989
13.8798		2.2138		0.0000		11.0304		461.6106		4.4276		132.2989
13.8816		2.2162		0.0000		11.0390		461.6705		4.4324		132.3989
13.8822		2.2184		0.0000		11.0477		461.6904		4.4368		132.4989
13.8830		2.2206		0.0000		11.0560		461.7170		4.4412		132.5989
13.8846		2.2228		0.0000		11.0644		461.7702		4.4456		132.6989
13.8872		2.2248		0.0000		11.0724		461.8567		4.4496		132.7989
13.8906		2.2272		0.0000		11.0805		461.9698		4.4544		132.8989
13.8920		2.2294		0.0000		11.0889		462.0163		4.4588		132.9989
13.8932		2.2316		0.0000		11.0975		462.0562		4.4632		133.0989
13.8936		2.2332		0.0000		11.1056		462.0695		4.4664		133.1989
13.8952		2.2358		0.0000		11.1145		462.1227		4.4716		133.2989
13.8974		2.2382		0.0000		11.1228		462.1959		4.4764		133.3989
13.8992		2.2404		0.0000		11.1309		462.2558		4.4808		133.4989
13.9016		2.2426		0.0000		11.1390		462.3356		4.4852		133.5990
13.9028		2.2448		0.0000		11.1473		462.3755		4.4896		133.6990
13.9040		2.2470		0.0000		11.1557		462.4154		4.4940		133.7990
13.9052		2.2492		0.0000		11.1643		462.4553		4.4984		133.8990
13.9076		2.2514		0.0000		11.1727		462.5351		4.5028		133.9990
13.9100		2.2536		0.0000		11.1813		462.6150		4.5072		134.0990
13.9112		2.2558		0.0000		11.1894		462.6549		4.5116		134.1990
13.9132		2.2576		0.0000		11.1972		462.7214		4.5152		134.2990
13.9144		2.2602		0.0000		11.2055		462.7613		4.5204		134.3990
13.9170		2.2624		0.0000		11.2139		462.8478		4.5248		134.4990
13.9190		2.2646		0.0000		11.2225		462.9143		4.5292		134.5990
13.9206		2.2670		0.0000		11.2308		462.9675		4.5340		134.6990
13.9216		2.2692		0.0000		11.2395		463.0008		4.5384		134.7990
13.9208		2.2712		0.0000		11.2478		462.9742		4.5424		134.8990
13.9220		2.2734		0.0000		11.2559		463.0141		4.5468		134.9990
13.9234		2.2758		0.0000		11.2640		463.0606		4.5516		135.0990
13.9262		2.2780		0.0000		11.2723		463.1537		4.5560		135.1991
13.9286		2.2802		0.0000		11.2807		463.2336		4.5604		135.2991
13.9284		2.2820		0.0000		11.2887		463.2269		4.5640		135.3991
13.9294		2.2846		0.0000		11.2977		463.2602		4.5692		135.4991
13.9294		2.2868		0.0000		11.3060		463.2602		4.5736		135.5991
13.9308		2.2890		0.0000		11.3144		463.3067		4.5780		135.6991
13.9332		2.2912		0.0000		11.3227		463.3865		4.5824		135.7991
13.9364		2.2934		0.0000		11.3305		463.4930		4.5868		135.8991
13.9380		2.2956		0.0000		11.3388		463.5462		4.5912		135.9991
13.9382		2.2974		0.0000		11.3472		463.5528		4.5948		136.0991
13.9404		2.3000		0.0000		11.3558		463.6260		4.6000		136.1991
13.9412		2.3022		0.0000		11.3645		463.6526		4.6044		136.2991
13.9430		2.3046		0.0000		11.3728		463.7125		4.6092		136.3991
13.9442		2.3062		0.0000		11.3806		463.7524		4.6124		136.4991
13.9458		2.3088		0.0000		11.3890		463.8056		4.6176		136.5991
13.9472		2.3110		0.0000		11.3973		463.8521		4.6220		136.6991
13.9478		2.3132		0.0000		11.4057		463.8721		4.6264		136.7991
13.9500		2.3154		0.0000		11.4140		463.9453		4.6308		136.8992
13.9522		2.3176		0.0000		11.4227		464.0184		4.6352		136.9992
13.9550		2.3198		0.0000		11.4310		464.1116		4.6396		137.0992
13.9562		2.3216		0.0000		11.4391		464.1515		4.6432		137.1992
13.9580		2.3244		0.0000		11.4474		464.2113		4.6488		137.2992
13.9608		2.3264		0.0000		11.4558		464.3045		4.6528		137.3992
13.9628		2.3286		0.0000		11.4641		464.3710		4.6572		137.4992
13.9640		2.3304		0.0000		11.4719		464.4109		4.6608		137.5992
13.9656		2.3332		0.0000		11.4808		464.4641		4.6664		137.6992
13.9666		2.3356		0.0000		11.4895		464.4973		4.6712		137.7992
13.9674		2.3374		0.0000		11.4975		464.5240		4.6748		137.8992
13.9684		2.3402		0.0000		11.5062		464.5572		4.6804		137.9992
13.9702		2.3424		0.0000		11.5140		464.6171		4.6848		138.0992
13.9712		2.3442		0.0000		11.5220		464.6503		4.6884		138.1992
13.9728		2.3468		0.0000		11.5307		464.7036		4.6936		138.2992
13.9730		2.3490		0.0000		11.5393		464.7102		4.6980		138.3992
13.9728		2.3512		0.0000		11.5476		464.7036		4.7024		138.4993
13.9730		2.3534		0.0000		11.5560		464.7102		4.7068		138.5993
13.9740		2.3552		0.0000		11.5641		464.7435		4.7104		138.6993
13.9768		2.3578		0.0000		11.5727		464.8366		4.7156		138.7993
13.9794		2.3600		0.0000		11.5808		464.9230		4.7200		138.8993
13.9802		2.3622		0.0000		11.5888		464.9496		4.7244		138.9993
13.9808		2.3644		0.0000		11.5975		464.9696		4.7288		139.0993
13.9810		2.3666		0.0000		11.6058		464.9763		4.7332		139.1993
13.9812		2.3688		0.0000		11.6145		464.9829		4.7376		139.2993
13.9834		2.3706		0.0000		11.6225		465.0561		4.7412		139.3993
13.9858		2.3732		0.0000		11.6312		465.1359		4.7464		139.4993
13.9874		2.3754		0.0000		11.6392		465.1891		4.7508		139.5993
13.9892		2.3776		0.0000		11.6473		465.2490		4.7552		139.6993
13.9902		2.3792		0.0000		11.6554		465.2823		4.7584		139.7993
13.9930		2.3818		0.0000		11.6640		465.3754		4.7636		139.8993
13.9952		2.3840		0.0000		11.6726		465.4485		4.7680		139.9993
13.9976		2.3862		0.0000		11.6813		465.5284		4.7724		140.0993
13.9992		2.3880		0.0000		11.6891		465.5815		4.7760		140.1994
14.0000		2.3908		0.0000		11.6977		465.6082		4.7816		140.2994
14.0012		2.3924		0.0000		11.7052		465.6481		4.7848		140.3994
14.0020		2.3952		0.0000		11.7141		465.6747		4.7904		140.4994
14.0040		2.3974		0.0000		11.7222		465.7412		4.7948		140.5994
14.0050		2.3996		0.0000		11.7308		465.7745		4.7992		140.6994
14.0046		2.4018		0.0000		11.7395		465.7611		4.8036		140.7994
14.0046		2.4036		0.0000		11.7475		465.7611		4.8072		140.8994
14.0060		2.4062		0.0000		11.7562		465.8077		4.8124		140.9994
14.0068		2.4084		0.0000		11.7642		465.8343		4.8168		141.0994
14.0100		2.4106		0.0000		11.7723		465.9408		4.8212		141.1994
14.0130		2.4128		0.0000		11.7806		466.0405		4.8256		141.2994
14.0150		2.4152		0.0000		11.7890		466.1071		4.8304		141.3994
14.0164		2.4174		0.0000		11.7976		466.1536		4.8348		141.4994
14.0164		2.4196		0.0000		11.8060		466.1536		4.8392		141.5994
14.0178		2.4218		0.0000		11.8143		466.2002		4.8436		141.6994
14.0194		2.4236		0.0000		11.8224		466.2534		4.8472		141.7995
14.0224		2.4264		0.0000		11.8308		466.3531		4.8528		141.8995
14.0242		2.4282		0.0000		11.8385		466.4130		4.8564		141.9995
14.0242		2.4310		0.0000		11.8475		466.4130		4.8620		142.0995
14.0244		2.4332		0.0000		11.8558		466.4196		4.8664		142.1995
14.0256		2.4354		0.0000		11.8642		466.4595		4.8708		142.2995
14.0272		2.4376		0.0000		11.8728		466.5128		4.8752		142.3995
14.0280		2.4398		0.0000		11.8812		466.5394		4.8796		142.4995
14.0294		2.4414		0.0000		11.8889		466.5859		4.8828		142.5995
14.0292		2.4442		0.0000		11.8973		466.5793		4.8884		142.6995
14.0300		2.4464		0.0000		11.9056		466.6059		4.8928		142.7995
14.0308		2.4486		0.0000		11.9140		466.6325		4.8972		142.8995
14.0314		2.4502		0.0000		11.9223		466.6525		4.9004		142.9995
14.0340		2.4528		0.0000		11.9310		466.7389		4.9056		143.0995
14.0346		2.4550		0.0000		11.9396		466.7589		4.9100		143.1995
14.0364		2.4572		0.0000		11.9477		466.8188		4.9144		143.2995
14.0378		2.4594		0.0000		11.9560		466.8653		4.9188		143.3996
14.0396		2.4616		0.0000		11.9641		466.9252		4.9232		143.4996
14.0410		2.4638		0.0000		11.9722		466.9717		4.9276		143.5996
14.0412		2.4656		0.0000		11.9805		466.9784		4.9312		143.6996
14.0426		2.4682		0.0000		11.9892		467.0249		4.9364		143.7996
14.0426		2.4704		0.0000		11.9978		467.0249		4.9408		143.8996
14.0438		2.4726		0.0000		12.0061		467.0649		4.9452		143.9996
14.0454		2.4748		0.0000		12.0142		467.1180		4.9496		144.0996
14.0482		2.4770		0.0000		12.0226		467.2112		4.9540		144.1996
14.0516		2.4794		0.0000		12.0306		467.3242		4.9588		144.2996
14.0526		2.4816		0.0000		12.0393		467.3575		4.9632		144.3996
14.0526		2.4838		0.0000		12.0476		467.3575		4.9676		144.4996
14.0524		2.4860		0.0000		12.0560		467.3509		4.9720		144.5996
14.0528		2.4882		0.0000		12.0646		467.3642		4.9764		144.6996
14.0542		2.4904		0.0000		12.0727		467.4107		4.9808		144.7996
14.0568		2.4926		0.0000		12.0810		467.4972		4.9852		144.8996
14.0590		2.4948		0.0000		12.0891		467.5704		4.9896		144.9996
14.0598		2.4970		0.0000		12.0974		467.5970		4.9940		145.0997
14.0608		2.4990		0.0000		12.1058		467.6302		4.9980		145.1997
14.0604		2.5008		0.0000		12.1139		467.6169		5.0016		145.2997
14.0634		2.5034		0.0000		12.1228		467.7167		5.0068		145.3997
14.0654		2.5058		0.0000		12.1314		467.7832		5.0116		145.4997
14.0682		2.5080		0.0000		12.1392		467.8763		5.0160		145.5997
14.0696		2.5102		0.0000		12.1476		467.9229		5.0204		145.6997
14.0708		2.5126		0.0000		12.1556		467.9628		5.0252		145.7997
14.0728		2.5148		0.0000		12.1640		468.0293		5.0296		145.8997
14.0750		2.5170		0.0000		12.1726		468.1025		5.0340		145.9997
14.0772		2.5188		0.0000		12.1807		468.1757		5.0376		146.0997
14.0774		2.5216		0.0000		12.1896		468.1823		5.0432		146.1997
14.0768		2.5238		0.0000		12.1980		468.1624		5.0476		146.2997
14.0776		2.5256		0.0000		12.2054		468.1890		5.0512		146.3997
14.0780		2.5284		0.0000		12.2141		468.2023		5.0568		146.4997
14.0796		2.5306		0.0000		12.2221		468.2555		5.0612		146.5997
14.0800		2.5324		0.0000		12.2305		468.2688		5.0648		146.6998
14.0802		2.5350		0.0000		12.2391		468.2755		5.0700		146.7998
14.0802		2.5372		0.0000		12.2478		468.2755		5.0744		146.8998
14.0812		2.5394		0.0000		12.2564		468.3087		5.0788		146.9998
14.0824		2.5418		0.0000		12.2645		468.3486		5.0836		147.0998
14.0844		2.5440		0.0000		12.2725		468.4151		5.0880		147.1998
14.0856		2.5462		0.0000		12.2806		468.4550		5.0924		147.2998
14.0862		2.5480		0.0000		12.2887		468.4750		5.0960		147.3998
14.0874		2.5506		0.0000		12.2976		468.5149		5.1012		147.4998
14.0880		2.5526		0.0000		12.3060		468.5349		5.1052		147.5998
14.0890		2.5548		0.0000		12.3146		468.5681		5.1096		147.6998
14.0912		2.5570		0.0000		12.3229		468.6413		5.1140		147.7998
14.0940		2.5592		0.0000		12.3310		468.7344		5.1184		147.8998
14.0958		2.5614		0.0000		12.3391		468.7943		5.1228		147.9998
14.0974		2.5636		0.0000		12.3474		468.8475		5.1272		148.0998
14.0980		2.5658		0.0000		12.3558		468.8674		5.1316		148.1998
14.0982		2.5680		0.0000		12.3641		468.8741		5.1360		148.2999
14.0986		2.5702		0.0000		12.3728		468.8874		5.1404		148.3999
14.1004		2.5724		0.0000		12.3811		468.9472		5.1448		148.4999
14.1018		2.5742		0.0000		12.3892		468.9938		5.1484		148.5999
14.1024		2.5770		0.0000		12.3975		469.0138		5.1540		148.6999
14.1040		2.5792		0.0000		12.4056		469.0670		5.1584		148.7999
14.1044		2.5814		0.0000		12.4140		469.0803		5.1628		148.8999
14.1054		2.5836		0.0000		12.4223		469.1135		5.1672		148.9999
14.1080		2.5858		0.0000		12.4309		469.2000		5.1716		149.0999
14.1088		2.5880		0.0000		12.4396		469.2266		5.1760		149.1999
14.1096		2.5902		0.0000		12.4479		469.2532		5.1804		149.2999
14.1098		2.5924		0.0000		12.4563		469.2599		5.1848		149.3999
14.1120		2.5948		0.0000		12.4641		469.3330		5.1896		149.4999
14.1140		2.5970		0.0000		12.4724		469.3996		5.1940		149.5999
14.1156		2.5988		0.0000		12.4805		469.4528		5.1976		149.6999
14.1182		2.6014		0.0000		12.4894		469.5392		5.2028		149.7999
14.1190		2.6038		0.0000		12.4978		469.5658		5.2076		149.8999
14.1194		2.6060		0.0000		12.5061		469.5791		5.2120		150.0000
14.1206		2.6084		0.0000		12.5145		469.6190		5.2168		150.1000
14.1232		2.6102		0.0000		12.5222		469.7055		5.2204		150.2000
14.1250		2.6130		0.0000		12.5309		469.7654		5.2260		150.3000
14.1254		2.6152		0.0000		12.5389		469.7787		5.2304		150.4000
14.1252		2.6174		0.0000		12.5476		469.7720		5.2348		150.5000
14.1254		2.6194		0.0000		12.5559		469.7787		5.2388		150.6000
14.1264		2.6218		0.0000		12.5646		469.8120		5.2436		150.7000
14.1282		2.6236		0.0000		12.5726		469.8718		5.2472		150.8000
14.1314		2.6264		0.0000		12.5810		469.9782		5.2528		150.9000
14.1320		2.6286		0.0000		12.5893		469.9982		5.2572		151.0000
14.1332		2.6304		0.0000		12.5971		470.0381		5.2608		151.1000
14.1332		2.6332		0.0000		12.6058		470.0381		5.2664		151.2000
14.1328		2.6354		0.0000		12.6141		470.0248		5.2708		151.3000
14.1338		2.6378		0.0000		12.6228		470.0580		5.2756		151.4000
14.1344		2.6400		0.0000		12.6314		470.0780		5.2800		151.5000
14.1366		2.6422		0.0000		12.6395		470.1512		5.2844		151.6001
14.1376		2.6444		0.0000		12.6478		470.1844		5.2888		151.7001
14.1392		2.6466		0.0000		12.6559		470.2376		5.2932		151.8001
14.1404		2.6484		0.0000		12.6636		470.2776		5.2968		151.9001
14.1418		2.6512		0.0000		12.6726		470.3241		5.3024		152.0001
14.1432		2.6534		0.0000		12.6809		470.3707		5.3068		152.1001
14.1430		2.6556		0.0000		12.6896		470.3640		5.3112		152.2001
14.1432		2.6578		0.0000		12.6979		470.3707		5.3156		152.3001
14.1434		2.6600		0.0000		12.7063		470.3773		5.3200		152.4001
14.1446		2.6622		0.0000		12.7143		470.4172		5.3244		152.5001
14.1472		2.6644		0.0000		12.7224		470.5037		5.3288		152.6001
14.1494		2.6668		0.0000		12.7308		470.5769		5.3336		152.7001
14.1502		2.6690		0.0000		12.7391		470.6035		5.3380		152.8001
14.1500		2.6714		0.0000		12.7477		470.5968		5.3428		152.9001
14.1498		2.6730		0.0000		12.7558		470.5902		5.3460		153.0001
14.1498		2.6756		0.0000		12.7644		470.5902		5.3512		153.1001
14.1512		2.6778		0.0000		12.7728		470.6367		5.3556		153.2001
14.1534		2.6798		0.0000		12.7809		470.7099		5.3596		153.3002
14.1562		2.6820		0.0000		12.7889		470.8030		5.3640		153.4002
14.1582		2.6844		0.0000		12.7973		470.8695		5.3688		153.5002
14.1592		2.6866		0.0000		12.8059		470.9028		5.3732		153.6002
14.1602		2.6884		0.0000		12.8140		470.9361		5.3768		153.7002
14.1614		2.6912		0.0000		12.8229		470.9760		5.3824		153.8002
14.1640		2.6934		0.0000		12.8313		471.0624		5.3868		153.9002
14.1650		2.6958		0.0000		12.8393		471.0957		5.3916		154.0002
14.1662		2.6976		0.0000		12.8471		471.1356		5.3952		154.1002
14.1668		2.7004		0.0000		12.8557		471.1555		5.4008		154.2002
14.1670		2.7028		0.0000		12.8644		471.1622		5.4056		154.3002
14.1680		2.7050		0.0000		12.8724		471.1955		5.4100		154.4002
14.1688		2.7072		0.0000		12.8811		471.2221		5.4144		154.5002
14.1696		2.7090		0.0000		12.8894		471.2487		5.4180		154.6002
14.1706		2.7118		0.0000		12.8978		471.2819		5.4236		154.7002
14.1706		2.7142		0.0000		12.9059		471.2819		5.4284		154.8002
14.1710		2.7164		0.0000		12.9139		471.2952		5.4328		154.9003
14.1718		2.7186		0.0000		12.9226		471.3218		5.4372		155.0003
14.1730		2.7208		0.0000		12.9309		471.3618		5.4416		155.1003
14.1732		2.7226		0.0000		12.9390		471.3684		5.4452		155.2003
14.1740		2.7252		0.0000		12.9479		471.3950		5.4504		155.3003
14.1754		2.7274		0.0000		12.9563		471.4416		5.4548		155.4003
14.1772		2.7296		0.0000		12.9643		471.5014		5.4592		155.5003
14.1784		2.7320		0.0000		12.9724		471.5414		5.4640		155.6003
14.1802		2.7338		0.0000		12.9804		471.6012		5.4676		155.7003
14.1822		2.7366		0.0000		12.9891		471.6677		5.4732		155.8003
14.1818		2.7388		0.0000		12.9977		471.6544		5.4776		155.9003
14.1812		2.7408		0.0000		13.0061		471.6345		5.4816		156.0003
14.1814		2.7430		0.0000		13.0147		471.6411		5.4860		156.1003
14.1832		2.7452		0.0000		13.0228		471.7010		5.4904		156.2003
14.1864		2.7470		0.0000		13.0306		471.8074		5.4940		156.3003
14.1894		2.7498		0.0000		13.0392		471.9072		5.4996		156.4003
14.1906		2.7520		0.0000		13.0473		471.9471		5.5040		156.5004
14.1904		2.7544		0.0000		13.0559		471.9404		5.5088		156.6004
14.1902		2.7566		0.0000		13.0645		471.9338		5.5132		156.7004
14.1916		2.7588		0.0000		13.0729		471.9803		5.5176		156.8004
14.1938		2.7610		0.0000		13.0812		472.0535		5.5220		156.9004
14.1948		2.7628		0.0000		13.0890		472.0868		5.5256		157.0004
14.1940		2.7656		0.0000		13.0974		472.0602		5.5312		157.1004
14.1940		2.7678		0.0000		13.1057		472.0602		5.5356		157.2004
14.1944		2.7696		0.0000		13.1138		472.0735		5.5392		157.3004
14.1966		2.7724		0.0000		13.1227		472.1466		5.5448		157.4004
14.1982		2.7746		0.0000		13.1311		472.1999		5.5492		157.5004
14.1996		2.7770		0.0000		13.1397		472.2464		5.5540		157.6004
14.1992		2.7792		0.0000		13.1481		472.2331		5.5584		157.7004
14.1996		2.7814		0.0000		13.1558		472.2464		5.5628		157.8004
14.2000		2.7836		0.0000		13.1642		472.2597		5.5672		157.9004
14.2014		2.7858		0.0000		13.1723		472.3063		5.5716		158.0004
14.2032		2.7876		0.0000		13.1806		472.3661		5.5752		158.1004
14.2060		2.7904		0.0000		13.1895		472.4593		5.5808		158.2005
14.2066		2.7928		0.0000		13.1979		472.4792		5.5856		158.3005
14.2060		2.7950		0.0000		13.2065		472.4593		5.5900		158.4005
14.2068		2.7968		0.0000		13.2140		472.4858		5.5936		158.5005
14.2068		2.7994		0.0000		13.2227		472.4858		5.5988		158.6005
14.2076		2.8016		0.0000		13.2307		472.5125		5.6032		158.7005
14.2082		2.8032		0.0000		13.2388		472.5324		5.6064		158.8005
14.2092		2.8058		0.0000		13.2477		472.5657		5.6116		158.9005
14.2098		2.8082		0.0000		13.2561		472.5856		5.6164		159.0005
14.2100		2.8100		0.0000		13.2644		472.5923		5.6200		159.1005
14.2118		2.8126		0.0000		13.2731		472.6521		5.6252		159.2005
14.2142		2.8148		0.0000		13.2811		472.7320		5.6296		159.3005
14.2162		2.8170		0.0000		13.2892		472.7985		5.6340		159.4005
14.2168		2.8188		0.0000		13.2972		472.8184		5.6376		159.5005
14.2184		2.8214		0.0000		13.3059		472.8716		5.6428		159.6005
14.2188		2.8238		0.0000		13.3142		472.8849		5.6476		159.7005
14.2180		2.8256		0.0000		13.3226		472.8583		5.6512		159.8006
14.2192		2.8282		0.0000		13.3312		472.8983		5.6564		159.9006
14.2196		2.8304		0.0000		13.3396		472.9116		5.6608		160.0006
14.2208		2.8326		0.0000		13.3476		472.9514		5.6652		160.1006
14.2218		2.8348		0.0000		13.3557		472.9847		5.6696		160.2006
14.2228		2.8372		0.0000		13.3641		473.0180		5.6744		160.3006
14.2246		2.8394		0.0000		13.3724		473.0779		5.6788		160.4006
14.2258		2.8416		0.0000		13.3811		473.1177		5.6832		160.5006
14.2274		2.8438		0.0000		13.3897		473.1710		5.6876		160.6006
14.2280		2.8458		0.0000		13.3978		473.1909		5.6916		160.7006
14.2276		2.8484		0.0000		13.4061		473.1776		5.6968		160.8006
14.2274		2.8506		0.0000		13.4142		473.1710		5.7012		160.9006
14.2278		2.8528		0.0000		13.4225		473.1843		5.7056		161.0006
14.2292		2.8550		0.0000		13.4309		473.2309		5.7100		161.1006
14.2306		2.8572		0.0000		13.4395		473.2774		5.7144		161.2006
14.2308		2.8594		0.0000		13.4479		473.2840		5.7188		161.3006
14.2306		2.8618		0.0000		13.4562		473.2774		5.7236		161.4007
14.2314		2.8640		0.0000		13.4646		473.3040		5.7280		161.5007
14.2328		2.8660		0.0000		13.4726		473.3506		5.7320		161.6007
14.2356		2.8682		0.0000		13.4807		473.4437		5.7364		161.7007
14.2372		2.8700		0.0000		13.4888		473.4969		5.7400		161.8007
14.2376		2.8726		0.0000		13.4977		473.5102		5.7452		161.9007
14.2376		2.8744		0.0000		13.5058		473.5102		5.7488		162.0007
14.2388		2.8770		0.0000		13.5147		473.5501		5.7540		162.1007
14.2418		2.8794		0.0000		13.5230		473.6499		5.7588		162.2007
14.2446		2.8816		0.0000		13.5311		473.7430		5.7632		162.3007
14.2454		2.8840		0.0000		13.5395		473.7696		5.7680		162.4007
14.2448		2.8864		0.0000		13.5472		473.7496		5.7728		162.5007
14.2436		2.8880		0.0000		13.5556		473.7097		5.7760		162.6007
14.2432		2.8906		0.0000		13.5642		473.6964		5.7812		162.7007
14.2434		2.8928		0.0000		13.5729		473.7031		5.7856		162.8007
14.2444		2.8946		0.0000		13.5809		473.7364		5.7892		162.9007
14.2454		2.8974		0.0000		13.5896		473.7696		5.7948		163.0007
14.2472		2.8996		0.0000		13.5976		473.8295		5.7992		163.1008
14.2488		2.9018		0.0000		13.6057		473.8827		5.8036		163.2008
14.2492		2.9042		0.0000		13.6143		473.8960		5.8084		163.3008
14.2490		2.9060		0.0000		13.6221		473.8893		5.8120		163.4008
14.2510		2.9086		0.0000		13.6310		473.9558		5.8172		163.5008
14.2512		2.9108		0.0000		13.6397		473.9625		5.8216		163.6008
14.2514		2.9130		0.0000		13.6480		473.9691		5.8260		163.7008
14.2518		2.9152		0.0000		13.6564		473.9825		5.8304		163.8008
14.2530		2.9174		0.0000		13.6642		474.0224		5.8348		163.9008
14.2546		2.9192		0.0000		13.6722		474.0756		5.8384		164.0008
14.2566		2.9218		0.0000		13.6809		474.1421		5.8436		164.1008
14.2568		2.9238		0.0000		13.6892		474.1487		5.8476		164.2008
14.2570		2.9262		0.0000		13.6979		474.1554		5.8524		164.3008
14.2572		2.9284		0.0000		13.7062		474.1620		5.8568		164.4008
14.2578		2.9306		0.0000		13.7148		474.1820		5.8612		164.5008
14.2592		2.9326		0.0000		13.7226		474.2286		5.8652		164.6008
14.2618		2.9348		0.0000		13.7310		474.3150		5.8696		164.7009
14.2632		2.9372		0.0000		13.7390		474.3616		5.8744		164.8009
14.2634		2.9394		0.0000		13.7477		474.3683		5.8788		164.9009
14.2634		2.9416		0.0000		13.7560		474.3683		5.8832		165.0009
14.2630		2.9432		0.0000		13.7641		474.3549		5.8864		165.1009
14.2646		2.9460		0.0000		13.7730		474.4081		5.8920		165.2009
14.2664		2.9484		0.0000		13.7814		474.4680		5.8968		165.3009
14.2682		2.9506		0.0000		13.7894		474.5279		5.9012		165.4009
14.2678		2.9528		0.0000		13.7975		474.5146		5.9056		165.5009
14.2678		2.9550		0.0000		13.8059		474.5146		5.9100		165.6009
14.2678		2.9568		0.0000		13.8142		474.5146		5.9136		165.7009
14.2686		2.9590		0.0000		13.8226		474.5412		5.9180		165.8009
14.2704		2.9612		0.0000		13.8312		474.6010		5.9224		165.9009
14.2708		2.9634		0.0000		13.8396		474.6143		5.9268		166.0009
14.2718		2.9656		0.0000		13.8476		474.6476		5.9312		166.1009
14.2718		2.9678		0.0000		13.8554		474.6476		5.9356		166.2009
14.2720		2.9700		0.0000		13.8640		474.6543		5.9400		166.3009
14.2734		2.9722		0.0000		13.8724		474.7008		5.9444		166.4010
14.2752		2.9744		0.0000		13.8810		474.7607		5.9488		166.5010
14.2754		2.9766		0.0000		13.8894		474.7674		5.9532		166.6010
14.2746		2.9788		0.0000		13.8977		474.7408		5.9576		166.7010
14.2750		2.9810		0.0000		13.9061		474.7540		5.9620		166.8010
14.2756		2.9832		0.0000		13.9141		474.7740		5.9664		166.9010
14.2774		2.9854		0.0000		13.9222		474.8339		5.9708		167.0010
14.2796		2.9876		0.0000		13.9306		474.9070		5.9752		167.1010
14.2808		2.9900		0.0000		13.9392		474.9469		5.9800		167.2010
14.2808		2.9920		0.0000		13.9473		474.9469		5.9840		167.3010
14.2810		2.9942		0.0000		13.9562		474.9536		5.9884		167.4010
14.2822		2.9964		0.0000		13.9645		474.9935		5.9928		167.5010
14.2830		2.9986		0.0000		13.9726		475.0201		5.9972		167.6010
14.2852		3.0008		0.0000		13.9807		475.0933		6.0016		167.7010
14.2868		3.0030		0.0000		13.9887		475.1465		6.0060		167.8010
14.2868		3.0052		0.0000		13.9971		475.1465		6.0104		167.9010
14.2870		3.0074		0.0000		14.0057		475.1531		6.0148		168.0011
14.2860		3.0098		0.0000		14.0141		475.1199		6.0196		168.1011
14.2870		3.0120		0.0000		14.0227		475.1531		6.0240		168.2011
14.2872		3.0142		0.0000		14.0314		475.1598		6.0284		168.3011
14.2888		3.0164		0.0000		14.0388		475.2130		6.0328		168.4011
14.2894		3.0186		0.0000		14.0472		475.2330		6.0372		168.5011
14.2894		3.0208		0.0000		14.0558		475.2330		6.0416		168.6011
14.2906		3.0230		0.0000		14.0639		475.2729		6.0460		168.7011
14.2914		3.0254		0.0000		14.0728		475.2995		6.0508		168.8011
14.2932		3.0276		0.0000		14.0812		475.3593		6.0552		168.9011
14.2940		3.0298		0.0000		14.0895		475.3859		6.0596		169.0011
14.2934		3.0320		0.0000		14.0979		475.3660		6.0640		169.1011
14.2932		3.0342		0.0000		14.1057		475.3593		6.0684		169.2011
14.2930		3.0364		0.0000		14.1140		475.3527		6.0728		169.3011
14.2938		3.0388		0.0000		14.1224		475.3793		6.0776		169.4011
14.2946		3.0408		0.0000		14.1307		475.4059		6.0816		169.5011
14.2970		3.0430		0.0000		14.1394		475.4857		6.0860		169.6012
14.2978		3.0454		0.0000		14.1477		475.5123		6.0908		169.7012
14.2978		3.0476		0.0000		14.1564		475.5123		6.0952		169.8012
14.2984		3.0498		0.0000		14.1644		475.5323		6.0996		169.9012
14.3002		3.0520		0.0000		14.1725		475.5921		6.1040		170.0012
14.3018		3.0542		0.0000		14.1803		475.6454		6.1084		170.1012
14.3028		3.0564		0.0000		14.1892		475.6786		6.1128		170.2012
14.3034		3.0586		0.0000		14.1975		475.6986		6.1172		170.3012
14.3034		3.0608		0.0000		14.2062		475.6986		6.1216		170.4012
14.3042		3.0630		0.0000		14.2145		475.7252		6.1260		170.5012
14.3054		3.0650		0.0000		14.2223		475.7651		6.1300		170.6012
14.3068		3.0672		0.0000		14.2304		475.8116		6.1344		170.7012
14.3076		3.0696		0.0000		14.2390		475.8383		6.1392		170.8012
14.3076		3.0718		0.0000		14.2471		475.8383		6.1436		170.9012
14.3094		3.0740		0.0000		14.2557		475.8981		6.1480		171.0012
14.3090		3.0762		0.0000		14.2644		475.8848		6.1524		171.1012
14.3092		3.0784		0.0000		14.2730		475.8915		6.1568		171.2012
14.3104		3.0806		0.0000		14.2808		475.9314		6.1612		171.3013
14.3108		3.0828		0.0000		14.2894		475.9446		6.1656		171.4013
14.3112		3.0850		0.0000		14.2969		475.9580		6.1700		171.5013
14.3118		3.0874		0.0000		14.3055		475.9779		6.1748		171.6013
14.3120		3.0896		0.0000		14.3139		475.9846		6.1792		171.7013
14.3132		3.0918		0.0000		14.3225		476.0245		6.1836		171.8013
14.3140		3.0940		0.0000		14.3312		476.0511		6.1880		171.9013
14.3144		3.0962		0.0000		14.3395		476.0644		6.1924		172.0013
14.3148		3.0984		0.0000		14.3479		476.0777		6.1968		172.1013
14.3152		3.1006		0.0000		14.3556		476.0910		6.2012		172.2013
14.3156		3.1028		0.0000		14.3640		476.1043		6.2056		172.3013
14.3164		3.1050		0.0000		14.3724		476.1309		6.2100		172.4013
14.3168		3.1074		0.0000		14.3807		476.1442		6.2148		172.5013
14.3172		3.1094		0.0000		14.3893		476.1575		6.2188		172.6013
14.3174		3.1116		0.0000		14.3977		476.1642		6.2232		172.7013
14.3184		3.1138		0.0000		14.4058		476.1974		6.2276		172.8013
14.3200		3.1160		0.0000		14.4144		476.2506		6.2320		172.9014
14.3220		3.1182		0.0000		14.4222		476.3171		6.2364		173.0014
14.3252		3.1206		0.0000		14.4305		476.4236		6.2412		173.1014
14.3254		3.1228		0.0000		14.4389		476.4302		6.2456		173.2014
14.3244		3.1252		0.0000		14.4475		476.3970		6.2504		173.3014
14.3244		3.1274		0.0000		14.4559		476.3970		6.2548		173.4014
14.3244		3.1296		0.0000		14.4645		476.3970		6.2592		173.5014
14.3250		3.1318		0.0000		14.4729		476.4169		6.2636		173.6014
14.3278		3.1340		0.0000		14.4809		476.5100		6.2680		173.7014
14.3282		3.1362		0.0000		14.4890		476.5234		6.2724		173.8014
14.3280		3.1384		0.0000		14.4971		476.5167		6.2768		173.9014
14.3272		3.1408		0.0000		14.5057		476.4901		6.2816		174.0014
14.3266		3.1430		0.0000		14.5140		476.4702		6.2860		174.1014
14.3284		3.1454		0.0000		14.5227		476.5300		6.2908		174.2014
14.3292		3.1474		0.0000		14.5313		476.5566		6.2948		174.3014
14.3308		3.1498		0.0000		14.5394		476.6098		6.2996		174.4014
14.3314		3.1520		0.0000		14.5475		476.6298		6.3040		174.5014
14.3318		3.1542		0.0000		14.5558		476.6431		6.3084		174.6015
14.3318		3.1564		0.0000		14.5639		476.6431		6.3128		174.7015
14.3322		3.1586		0.0000		14.5725		476.6564		6.3172		174.8015
14.3332		3.1608		0.0000		14.5812		476.6896		6.3216		174.9015
14.3334		3.1630		0.0000		14.5892		476.6963		6.3260		175.0015
14.3342		3.1652		0.0000		14.5979		476.7229		6.3304		175.1015
14.3340		3.1674		0.0000		14.6059		476.7162		6.3348		175.2015
14.3344		3.1698		0.0000		14.6140		476.7296		6.3396		175.3015
14.3356		3.1720		0.0000		14.6223		476.7695		6.3440		175.4015
14.3364		3.1742		0.0000		14.6307		476.7961		6.3484		175.5015
14.3378		3.1764		0.0000		14.6393		476.8426		6.3528		175.6015
14.3374		3.1788		0.0000		14.6480		476.8293		6.3576		175.7015
14.3382		3.1810		0.0000		14.6563		476.8559		6.3620		175.8015
14.3380		3.1832		0.0000		14.6647		476.8493		6.3664		175.9015
14.3394		3.1854		0.0000		14.6724		476.8958		6.3708		176.0015
14.3410		3.1876		0.0000		14.6802		476.9490		6.3752		176.1015
14.3414		3.1898		0.0000		14.6892		476.9624		6.3796		176.2016
14.3412		3.1920		0.0000		14.6972		476.9557		6.3840		176.3016
14.3416		3.1944		0.0000		14.7061		476.9690		6.3888		176.4016
14.3424		3.1966		0.0000		14.7145		476.9956		6.3932		176.5016
14.3428		3.1988		0.0000		14.7228		477.0089		6.3976		176.6016
14.3436		3.2010		0.0000		14.7312		477.0355		6.4020		176.7016
14.3442		3.2030		0.0000		14.7390		477.0555		6.4060		176.8016
14.3442		3.2052		0.0000		14.7473		477.0555		6.4104		176.9016
14.3444		3.2074		0.0000		14.7554		477.0621		6.4148		177.0016
14.3454		3.2096		0.0000		14.7643		477.0954		6.4192		177.1016
14.3462		3.2118		0.0000		14.7724		477.1220		6.4236		177.2016
14.3472		3.2140		0.0000		14.7813		477.1552		6.4280		177.3016
14.3472		3.2164		0.0000		14.7897		477.1552		6.4328		177.4016
14.3478		3.2186		0.0000		14.7972		477.1752		6.4372		177.5016
14.3476		3.2208		0.0000		14.8058		477.1685		6.4416		177.6016
14.3490		3.2230		0.0000		14.8139		477.2151		6.4460		177.7016
14.3500		3.2252		0.0000		14.8225		477.2484		6.4504		177.8017
14.3506		3.2274		0.0000		14.8308		477.2683		6.4548		177.9017
14.3496		3.2296		0.0000		14.8392		477.2351		6.4592		178.0017
14.3494		3.2318		0.0000		14.8481		477.2284		6.4636		178.1017
14.3506		3.2340		0.0000		14.8562		477.2683		6.4680		178.2017
14.3518		3.2362		0.0000		14.8637		477.3082		6.4724		178.3017
14.3536		3.2386		0.0000		14.8723		477.3681		6.4772		178.4017
14.3552		3.2406		0.0000		14.8810		477.4213		6.4812		178.5017
14.3558		3.2430		0.0000		14.8890		477.4413		6.4860		178.6017
14.3554		3.2452		0.0000		14.8977		477.4280		6.4904		178.7017
14.3554		3.2472		0.0000		14.9063		477.4280		6.4944		178.8017
14.3570		3.2496		0.0000		14.9147		477.4812		6.4992		178.9017
14.3584		3.2518		0.0000		14.9227		477.5277		6.5036		179.0017
14.3600		3.2542		0.0000		14.9308		477.5809		6.5084		179.1017
14.3616		3.2564		0.0000		14.9391		477.6342		6.5128		179.2017
14.3614		3.2586		0.0000		14.9475		477.6275		6.5172		179.3017
14.3600		3.2608		0.0000		14.9556		477.5809		6.5216		179.4017
14.3594		3.2632		0.0000		14.9645		477.5610		6.5264		179.5018
14.3600		3.2654		0.0000		14.9728		477.5809		6.5308		179.6018
14.3614		3.2676		0.0000		14.9812		477.6275		6.5352		179.7018
14.3626		3.2698		0.0000		14.9887		477.6674		6.5396		179.8018
14.3628		3.2720		0.0000		14.9973		477.6741		6.5440		179.9018
14.3622		3.2742		0.0000		15.0057		477.6541		6.5484		180.0018
14.3620		3.2764		0.0000		15.0143		477.6475		6.5528		180.1018
14.3620		3.2786		0.0000		15.0227		477.6475		6.5572		180.2018
14.3626		3.2808		0.0000		15.0313		477.6674		6.5616		180.3018
14.3642		3.2830		0.0000		15.0396		477.7206		6.5660		180.4018
14.3650		3.2852		0.0000		15.0474		477.7472		6.5704		180.5018
14.3658		3.2874		0.0000		15.0558		477.7738		6.5748		180.6018
14.3666		3.2898		0.0000		15.0636		477.8004		6.5796		180.7018
14.3676		3.2920		0.0000		15.0725		477.8337		6.5840		180.8018
14.3680		3.2942		0.0000		15.0811		477.8470		6.5884		180.9018
14.3684		3.2964		0.0000		15.0895		477.8603		6.5928		181.0018
14.3688		3.2986		0.0000		15.0981		477.8736		6.5972		181.1019
14.3702		3.3010		0.0000		15.1062		477.9202		6.6020		181.2019
14.3724		3.3032		0.0000		15.1142		477.9933		6.6064		181.3019
14.3732		3.3056		0.0000		15.1223		478.0199		6.6112		181.4019
14.3746		3.3078		0.0000		15.1307		478.0665		6.6156		181.5019
14.3736		3.3100		0.0000		15.1390		478.0333		6.6200		181.6019
14.3732		3.3124		0.0000		15.1476		478.0199		6.6248		181.7019
14.3734		3.3146		0.0000		15.1563		478.0266		6.6292		181.8019
14.3734		3.3168		0.0000		15.1646		478.0266		6.6336		181.9019
14.3744		3.3190		0.0000		15.1727		478.0599		6.6380		182.0019
14.3750		3.3212		0.0000		15.1808		478.0798		6.6424		182.1019
14.3758		3.3234		0.0000		15.1891		478.1064		6.6468		182.2019
14.3762		3.3258		0.0000		15.1975		478.1197		6.6516		182.3019
14.3764		3.3280		0.0000		15.2058		478.1264		6.6560		182.4019
14.3772		3.3302		0.0000		15.2145		478.1530		6.6604		182.5019
14.3774		3.3326		0.0000		15.2231		478.1596		6.6652		182.6019
14.3798		3.3350		0.0000		15.2312		478.2394		6.6700		182.7020
14.3808		3.3374		0.0000		15.2395		478.2727		6.6748		182.8020
14.3810		3.3396		0.0000		15.2476		478.2794		6.6792		182.9020
14.3814		3.3418		0.0000		15.2559		478.2927		6.6836		183.0020
14.3806		3.3440		0.0000		15.2646		478.2661		6.6880		183.1020
14.3808		3.3462		0.0000		15.2726		478.2727		6.6924		183.2020
14.3804		3.3484		0.0000		15.2810		478.2594		6.6968		183.3020
14.3824		3.3506		0.0000		15.2896		478.3259		6.7012		183.4020
14.3826		3.3528		0.0000		15.2980		478.3326		6.7056		183.5020
14.3822		3.3550		0.0000		15.3060		478.3193		6.7100		183.6020
14.3824		3.3572		0.0000		15.3141		478.3259		6.7144		183.7020
14.3832		3.3594		0.0000		15.3222		478.3525		6.7188		183.8020
14.3852		3.3616		0.0000		15.3308		478.4190		6.7232		183.9020
14.3858		3.3640		0.0000		15.3395		478.4390		6.7280		184.0020
14.3866		3.3662		0.0000		15.3478		478.4656		6.7324		184.1020
14.3860		3.3684		0.0000		15.3564		478.4456		6.7368		184.2020
14.3860		3.3708		0.0000		15.3642		478.4456		6.7416		184.3020
14.3862		3.3728		0.0000		15.3726		478.4523		6.7456		184.4021
14.3874		3.3750		0.0000		15.3806		478.4922		6.7500		184.5021
14.3886		3.3774		0.0000		15.3887		478.5321		6.7548		184.6021
14.3904		3.3796		0.0000		15.3979		478.5920		6.7592		184.7021
14.3912		3.3820		0.0000		15.4063		478.6186		6.7640		184.8021
14.3902		3.3842		0.0000		15.4143		478.5853		6.7684		184.9021
14.3900		3.3864		0.0000		15.4230		478.5787		6.7728		185.0021
14.3906		3.3886		0.0000		15.4310		478.5986		6.7772		185.1021
14.3910		3.3910		0.0000		15.4391		478.6119		6.7820		185.2021
14.3912		3.3932		0.0000		15.4475		478.6186		6.7864		185.3021
14.3912		3.3954		0.0000		15.4561		478.6186		6.7908		185.4021
14.3906		3.3976		0.0000		15.4642		478.5986		6.7952		185.5021
14.3906		3.3998		0.0000		15.4728		478.5986		6.7996		185.6021
14.3918		3.4020		0.0000		15.4814		478.6385		6.8040		185.7021
14.3936		3.4042		0.0000		15.4895		478.6984		6.8084		185.8021
14.3940		3.4064		0.0000		15.4976		478.7117		6.8128		185.9021
14.3940		3.4086		0.0000		15.5053		478.7117		6.8172		186.0022
14.3944		3.4110		0.0000		15.5143		478.7250		6.8220		186.1022
14.3946		3.4132		0.0000		15.5226		478.7317		6.8264		186.2022
14.3950		3.4152		0.0000		15.5313		478.7450		6.8304		186.3022
14.3962		3.4176		0.0000		15.5396		478.7849		6.8352		186.4022
14.3970		3.4196		0.0000		15.5480		478.8115		6.8392		186.5022
14.3978		3.4218		0.0000		15.5560		478.8381		6.8436		186.6022
14.3984		3.4240		0.0000		15.5638		478.8581		6.8480		186.7022
14.3980		3.4262		0.0000		15.5724		478.8447		6.8524		186.8022
14.3994		3.4286		0.0000		15.5808		478.8913		6.8572		186.9022
14.4004		3.4308		0.0000		15.5894		478.9246		6.8616		187.0022
14.4006		3.4330		0.0000		15.5975		478.9312		6.8660		187.1022
14.4010		3.4352		0.0000		15.6064		478.9445		6.8704		187.2022
14.4006		3.4374		0.0000		15.6145		478.9312		6.8748		187.3022
14.4014		3.4396		0.0000		15.6226		478.9578		6.8792		187.4022
14.4040		3.4418		0.0000		15.6309		479.0443		6.8836		187.5022
14.4052		3.4442		0.0000		15.6393		479.0842		6.8884		187.6022
14.4046		3.4464		0.0000		15.6476		479.0642		6.8928		187.7023
14.4034		3.4488		0.0000		15.6563		479.0243		6.8976		187.8023
14.4030		3.4508		0.0000		15.6646		479.0110		6.9016		187.9023
14.4036		3.4530		0.0000		15.6730		479.0310		6.9060		188.0023
14.4052		3.4554		0.0000		15.6807		479.0842		6.9108		188.1023
14.4074		3.4621		0.0000		15.6891		479.1574		6.9243		188.2023
14.4076		3.4705		0.0000		15.6974		479.1640		6.9410		188.3023
14.4068		3.4788		0.0000		15.7058		479.1374		6.9577		188.4023
14.4058		3.4875		0.0000		15.7144		479.1042		6.9750		188.5023
14.4050		3.4958		0.0000		15.7228		479.0775		6.9917		188.6023
14.4066		3.5042		0.0000		15.7311		479.1308		7.0084		188.7023
14.4074		3.5128		0.0000		15.7398		479.1574		7.0256		188.8023
14.4090		3.5206		0.0000		15.7476		479.2106		7.0412		188.9023
14.4092		3.5290		0.0000		15.7559		479.2172		7.0579		189.0023
14.4086		3.5373		0.0000		15.7643		479.1973		7.0746		189.1023
14.4078		3.5454		0.0000		15.7723		479.1707		7.0907		189.2023
14.4090		3.5543		0.0000		15.7812		479.2106		7.1086		189.3024
14.4106		3.5626		0.0000		15.7896		479.2638		7.1253		189.4024
14.4108		3.5710		0.0000		15.7980		479.2704		7.1420		189.5024
14.4118		3.5791		0.0000		15.8060		479.3037		7.1581		189.6024
14.4120		3.5874		0.0000		15.8144		479.3103		7.1748		189.7024
14.4126		3.5955		0.0000		15.8224		479.3303		7.1910		189.8024
14.4134		3.6038		0.0000		15.8308		479.3569		7.2077		189.9024
14.4142		3.6125		0.0000		15.8394		479.3835		7.2249		190.0024
14.4148		3.6208		0.0000		15.8478		479.4035		7.2416		190.1024
14.4136		3.6295		0.0000		15.8564		479.3636		7.2589		190.2024
14.4138		3.6375		0.0000		15.8645		479.3702		7.2751		190.3024
14.4146		3.6453		0.0000		15.8723		479.3968		7.2906		190.4024
14.4156		3.6539		0.0000		15.8809		479.4301		7.3079		190.5024
14.4168		3.6620		0.0000		15.8890		479.4700		7.3240		190.6024
14.4162		3.6706		0.0000		15.8976		479.4500		7.3413		190.7024
14.4154		3.6790		0.0000		15.9060		479.4234		7.3580		190.8024
14.4150		3.6876		0.0000		15.9146		479.4101		7.3753		190.9025
14.4172		3.6960		0.0000		15.9229		479.4833		7.3920		191.0025
14.4190		3.7043		0.0000		15.9313		479.5432		7.4087		191.1025
14.4210		3.7121		0.0000		15.9391		479.6096		7.4242		191.2025
14.4216		3.7205		0.0000		15.9474		479.6296		7.4409		191.3025
14.4206		3.7288		0.0000		15.9558		479.5964		7.4576		191.4025
14.4198		3.7372		0.0000		15.9641		479.5698		7.4744		191.5025
14.4192		3.7461		0.0000		15.9731		479.5498		7.4922		191.6025
14.4216		3.7545		0.0000		15.9814		479.6296		7.5089		191.7025
14.4236		3.7628		0.0000		15.9898		479.6961		7.5256		191.8025
14.4234		3.7709		0.0000		15.9978		479.6895		7.5417		191.9025
14.4232		3.7789		0.0000		16.0059		479.6828		7.5579		192.0025
14.4234		3.7873		0.0000		16.0142		479.6895		7.5746		192.1025
14.4246		3.7956		0.0000		16.0226		479.7294		7.5913		192.2025
14.4252		3.8043		0.0000		16.0312		479.7493		7.6086		192.3025
14.4266		3.8126		0.0000		16.0396		479.7959		7.6253		192.4025
14.4266		3.8213		0.0000		16.0482		479.7959		7.6425		192.5025
14.4272		3.8288		0.0000		16.0557		479.8159		7.6575		192.6026
14.4266		3.8374		0.0000		16.0644		479.7959		7.6748		192.7026
14.4262		3.8455		0.0000		16.0724		479.7826		7.6909		192.8026
14.4270		3.8538		0.0000		16.0808		479.8092		7.7076		192.9026
14.4274		3.8625		0.0000		16.0894		479.8225		7.7249		193.0026
14.4272		3.8708		0.0000		16.0978		479.8159		7.7416		193.1026
14.4266		3.8794		0.0000		16.1064		479.7959		7.7589		193.2026
14.4254		3.8878		0.0000		16.1148		479.7560		7.7756		193.3026
14.4254		3.8959		0.0000		16.1228		479.7560		7.7917		193.4026
14.4266		3.9039		0.0000		16.1309		479.7959		7.8079		193.5026
14.4280		3.9120		0.0000		16.1389		479.8425		7.8240		193.6026
14.4274		3.9203		0.0000		16.1473		479.8225		7.8407		193.7026
14.4276		3.9293		0.0000		16.1562		479.8292		7.8585		193.8026
14.4272		3.9376		0.0000		16.1646		479.8159		7.8752		193.9026
14.4272		3.9463		0.0000		16.1732		479.8159		7.8925		194.0026
14.4288		3.9543		0.0000		16.1813		479.8691		7.9087		194.1026
14.4302		3.9624		0.0000		16.1893		479.9156		7.9248		194.2027
14.4302		3.9705		0.0000		16.1974		479.9156		7.9409		194.3027
14.4298		3.9788		0.0000		16.2058		479.9023		7.9576		194.4027
14.4288		3.9874		0.0000		16.2144		479.8691		7.9749		194.5027
14.4280		3.9958		0.0000		16.2228		479.8425		7.9916		194.6027
14.4292		4.0044		0.0000		16.2314		479.8824		8.0089		194.7027
14.4308		4.0125		0.0000		16.2395		479.9356		8.0250		194.8027
14.4324		4.0209		0.0000		16.2478		479.9888		8.0417		194.9027
14.4336		4.0289		0.0000		16.2559		480.0287		8.0578		195.0027
14.4344		4.0370		0.0000		16.2639		480.0553		8.0740		195.1027
14.4354		4.0456		0.0000		16.2726		480.0886		8.0912		195.2027
14.4362		4.0543		0.0000		16.2812		480.1152		8.1085		195.3027
14.4362		4.0626		0.0000		16.2896		480.1152		8.1252		195.4027
14.4358		4.0710		0.0000		16.2979		480.1019		8.1419		195.5027
14.4360		4.0796		0.0000		16.3066		480.1085		8.1592		195.6027
14.4364		4.0874		0.0000		16.3143		480.1218		8.1748		195.7027
14.4372		4.0957		0.0000		16.3227		480.1484		8.1915		195.8027
14.4380		4.1035		0.0000		16.3305		480.1750		8.2070		195.9028
14.4400		4.1124		0.0000		16.3394		480.2415		8.2249		196.0028
14.4398		4.1211		0.0000		16.3480		480.2349		8.2422		196.1028
14.4394		4.1289		0.0000		16.3558		480.2216		8.2577		196.2028
14.4380		4.1378		0.0000		16.3647		480.1750		8.2756		196.3028
14.4372		4.1458		0.0000		16.3728		480.1484		8.2917		196.4028
14.4392		4.1539		0.0000		16.3809		480.2149		8.3078		196.5028
14.4406		4.1623		0.0000		16.3892		480.2615		8.3245		196.6028
14.4412		4.1706		0.0000		16.3976		480.2815		8.3412		196.7028
14.4408		4.1790		0.0000		16.4059		480.2682		8.3579		196.8028
14.4396		4.1876		0.0000		16.4146		480.2283		8.3752		196.9028
14.4400		4.1957		0.0000		16.4226		480.2415		8.3913		197.0028
14.4400		4.2046		0.0000		16.4316		480.2415		8.4092		197.1028
14.4414		4.2127		0.0000		16.4396		480.2881		8.4253		197.2028
14.4420		4.2204		0.0000		16.4474		480.3081		8.4409		197.3028
14.4418		4.2288		0.0000		16.4557		480.3014		8.4576		197.4028
14.4414		4.2374		0.0000		16.4644		480.2881		8.4749		197.5029
14.4412		4.2455		0.0000		16.4724		480.2815		8.4910		197.6029
14.4420		4.2544		0.0000		16.4814		480.3081		8.5089		197.7029
14.4426		4.2628		0.0000		16.4897		480.3280		8.5256		197.8029
14.4440		4.2711		0.0000		16.4981		480.3746		8.5423		197.9029
14.4436		4.2789		0.0000		16.5059		480.3613		8.5578		198.0029
14.4438		4.2870		0.0000		16.5139		480.3680		8.5739		198.1029
14.4446		4.2956		0.0000		16.5226		480.3946		8.5912		198.2029
14.4448		4.3040		0.0000		16.5309		480.4012		8.6079		198.3029
14.4452		4.3126		0.0000		16.5396		480.4145		8.6252		198.4029
14.4454		4.3212		0.0000		16.5482		480.4212		8.6425		198.5029
14.4474		4.3293		0.0000		16.5563		480.4877		8.6586		198.6029
14.4470		4.3377		0.0000		16.5646		480.4744		8.6753		198.7029
14.4484		4.3451		0.0000		16.5721		480.5209		8.6903		198.8029
14.4496		4.3538		0.0000		16.5807		480.5609		8.7076		198.9029
14.4514		4.3624		0.0000		16.5894		480.6207		8.7248		199.0029
14.4518		4.3708		0.0000		16.5977		480.6340		8.7416		199.1030
14.4498		4.3791		0.0000		16.6061		480.5675		8.7583		199.2030
14.4496		4.3878		0.0000		16.6147		480.5609		8.7755		199.3030
14.4496		4.3961		0.0000		16.6231		480.5609		8.7922		199.4030
14.4504		4.4042		0.0000		16.6311		480.5875		8.8084		199.5030
14.4524		4.4122		0.0000		16.6392		480.6540		8.8245		199.6030
14.4536		4.4206		0.0000		16.6476		480.6939		8.8412		199.7030
14.4542		4.4290		0.0000		16.6559		480.7138		8.8579		199.8030
14.4542		4.4376		0.0000		16.6645		480.7138		8.8752		199.9030
14.4544		4.4457		0.0000		16.6726		480.7205		8.8913		200.0030
14.4544		4.4543		0.0000		16.6812		480.7205		8.9086		200.1030
14.4550		4.4621		0.0000		16.6890		480.7404		8.9241		200.2030
14.4546		4.4707		0.0000		16.6977		480.7271		8.9414		200.3030
14.4542		4.4791		0.0000		16.7060		480.7138		8.9581		200.4030
14.4548		4.4871		0.0000		16.7141		480.7338		8.9743		200.5030
14.4552		4.4958		0.0000		16.7227		480.7471		8.9915		200.6030
14.4564		4.5044		0.0000		16.7314		480.7870		9.0088		200.7030
14.4568		4.5128		0.0000		16.7397		480.8003		9.0255		200.8031
14.4570		4.5211		0.0000		16.7481		480.8069		9.0422		200.9031
14.4566		4.5292		0.0000		16.7561		480.7936		9.0584		201.0031
14.4562		4.5372		0.0000		16.7642		480.7803		9.0745		201.1031
14.4568		4.5456		0.0000		16.7725		480.8003		9.0912		201.2031
14.4566		4.5542		0.0000		16.7812		480.7936		9.1085		201.3031
14.4570		4.5623		0.0000		16.7892		480.8069		9.1246		201.4031
14.4578		4.5709		0.0000		16.7979		480.8336		9.1419		201.5031
14.4574		4.5796		0.0000		16.8065		480.8203		9.1592		201.6031
14.4570		4.5876		0.0000		16.8146		480.8069		9.1753		201.7031
14.4570		4.5957		0.0000		16.8227		480.8069		9.1914		201.8031
14.4578		4.6038		0.0000		16.8307		480.8336		9.2075		201.9031
14.4588		4.6124		0.0000		16.8394		480.8668		9.2248		202.0031
14.4584		4.6205		0.0000		16.8474		480.8535		9.2409		202.1031
14.4580		4.6291		0.0000		16.8561		480.8402		9.2582		202.2031
14.4576		4.6378		0.0000		16.8647		480.8269		9.2755		202.3031
14.4578		4.6461		0.0000		16.8731		480.8336		9.2922		202.4032
14.4596		4.6539		0.0000		16.8808		480.8934		9.3078		202.5032
14.4612		4.6622		0.0000		16.8892		480.9466		9.3245		202.6032
14.4616		4.6706		0.0000		16.8975		480.9599		9.3412		202.7032
14.4606		4.6789		0.0000		16.9059		480.9267		9.3579		202.8032
14.4594		4.6876		0.0000		16.9145		480.8868		9.3752		202.9032
14.4592		4.6959		0.0000		16.9229		480.8801		9.3919		203.0032
14.4592		4.7046		0.0000		16.9315		480.8801		9.4091		203.1032
14.4606		4.7129		0.0000		16.9399		480.9267		9.4258		203.2032
14.4622		4.7204		0.0000		16.9474		480.9799		9.4408		203.3032
14.4620		4.7290		0.0000		16.9560		480.9732		9.4581		203.4032
14.4618		4.7374		0.0000		16.9644		480.9666		9.4748		203.5032
14.4620		4.7455		0.0000		16.9724		480.9732		9.4909		203.6032
14.4648		4.7544		0.0000		16.9813		481.0663		9.5088		203.7032
14.4660		4.7627		0.0000		16.9897		481.1063		9.5255		203.8032
14.4658		4.7711		0.0000		16.9980		481.0996		9.5422		203.9032
14.4644		4.7794		0.0000		17.0064		481.0531		9.5589		204.0033
14.4654		4.7875		0.0000		17.0145		481.0863		9.5750		204.1033
14.4650		4.7956		0.0000		17.0225		481.0730		9.5912		204.2033
14.4654		4.8039		0.0000		17.0309		481.0863		9.6079		204.3033
14.4658		4.8126		0.0000		17.0395		481.0996		9.6251		204.4033
14.4646		4.8206		0.0000		17.0476		481.0597		9.6413		204.5033
14.4648		4.8296		0.0000		17.0565		481.0663		9.6591		204.6033
14.4650		4.8373		0.0000		17.0643		481.0730		9.6747		204.7033
14.4654		4.8457		0.0000		17.0726		481.0863		9.6914		204.8033
14.4654		4.8540		0.0000		17.0810		481.0863		9.7081		204.9033
14.4660		4.8624		0.0000		17.0893		481.1063		9.7248		205.0033
14.4664		4.8707		0.0000		17.0977		481.1196		9.7415		205.1033
14.4658		4.8791		0.0000		17.1060		481.0996		9.7582		205.2033
14.4658		4.8877		0.0000		17.1147		481.0996		9.7755		205.3033
14.4656		4.8964		0.0000		17.1233		481.0930		9.7928		205.4033
14.4680		4.9044		0.0000		17.1314		481.1728		9.8089		205.5033
14.4696		4.9125		0.0000		17.1395		481.2260		9.8250		205.6033
14.4696		4.9206		0.0000		17.1475		481.2260		9.8411		205.7034
14.4688		4.9289		0.0000		17.1559		481.1994		9.8578		205.8034
14.4678		4.9376		0.0000		17.1645		481.1661		9.8751		205.9034
14.4674		4.9459		0.0000		17.1729		481.1528		9.8918		206.0034
14.4676		4.9546		0.0000		17.1815		481.1595		9.9091		206.1034
14.4696		4.9629		0.0000		17.1899		481.2260		9.9258		206.2034
14.4704		4.9710		0.0000		17.1979		481.2526		9.9419		206.3034
14.4712		4.9790		0.0000		17.2060		481.2792		9.9581		206.4034
14.4718		4.9874		0.0000		17.2143		481.2992		9.9748		206.5034
14.4714		4.9957		0.0000		17.2227		481.2859		9.9915		206.6034
14.4722		5.0041		0.0000		17.2310		481.3124		10.0082		206.7034
14.4716		5.0127		0.0000		17.2397		481.2925		10.0255		206.8034
14.4716		5.0208		0.0000		17.2477		481.2925		10.0416		206.9034
14.4696		5.0294		0.0000		17.2564		481.2260		10.0589		207.0034
14.4702		5.0375		0.0000		17.2644		481.2459		10.0750		207.1034
14.4716		5.0456		0.0000		17.2725		481.2925		10.0911		207.2034
14.4726		5.0542		0.0000		17.2812		481.3258		10.1084		207.3035
14.4734		5.0623		0.0000		17.2892		481.3524		10.1245		207.4035
14.4722		5.0712		0.0000		17.2981		481.3124		10.1424		207.5035
14.4716		5.0793		0.0000		17.3062		481.2925		10.1585		207.6035
14.4714		5.0879		0.0000		17.3148		481.2859		10.1758		207.7035
14.4722		5.0960		0.0000		17.3229		481.3124		10.1919		207.8035
14.4738		5.1040		0.0000		17.3310		481.3657		10.2080		207.9035
14.4742		5.1121		0.0000		17.3390		481.3790		10.2242		208.0035
14.4740		5.1207		0.0000		17.3477		481.3723		10.2415		208.1035
14.4728		5.1291		0.0000		17.3560		481.3324		10.2582		208.2035
14.4728		5.1377		0.0000		17.3647		481.3324		10.2754		208.3035
14.4722		5.1464		0.0000		17.3733		481.3124		10.2927		208.4035
14.4734		5.1544		0.0000		17.3814		481.3524		10.3088		208.5035
14.4750		5.1625		0.0000		17.3894		481.4056		10.3250		208.6035
14.4756		5.1706		0.0000		17.3975		481.4255		10.3411		208.7035
14.4748		5.1789		0.0000		17.4059		481.3989		10.3578		208.8035
14.4734		5.1875		0.0000		17.4145		481.3524		10.3751		208.9035
14.4736		5.1959		0.0000		17.4228		481.3590		10.3918		209.0036
14.4740		5.2045		0.0000		17.4315		481.3723		10.4091		209.1036
14.4754		5.2126		0.0000		17.4396		481.4189		10.4252		209.2036
14.4760		5.2210		0.0000		17.4479		481.4388		10.4419		209.3036
14.4760		5.2290		0.0000		17.4560		481.4388		10.4580		209.4036
14.4766		5.2374		0.0000		17.4643		481.4588		10.4747		209.5036
14.4760		5.2457		0.0000		17.4727		481.4388		10.4914		209.6036
14.4758		5.2538		0.0000		17.4807		481.4322		10.5076		209.7036
14.4756		5.2627		0.0000		17.4897		481.4255		10.5254		209.8036
14.4750		5.2714		0.0000		17.4983		481.4056		10.5427		209.9036
14.4748		5.2794		0.0000		17.5064		481.3989		10.5588		210.0036
14.4740		5.2878		0.0000		17.5147		481.3723		10.5755		210.1036
14.4746		5.2953		0.0000		17.5222		481.3923		10.5905		210.2036
14.4762		5.3039		0.0000		17.5308		481.4455		10.6078		210.3036
14.4772		5.3125		0.0000		17.5395		481.4787		10.6251		210.4036
14.4776		5.3209		0.0000		17.5478		481.4921		10.6418		210.5036
14.4772		5.3295		0.0000		17.5565		481.4787		10.6591		210.6037
14.4772		5.3379		0.0000		17.5648		481.4787		10.6758		210.7037
14.4780		5.3457		0.0000		17.5726		481.5053		10.6913		210.8037
14.4774		5.3540		0.0000		17.5810		481.4854		10.7080		210.9037
14.4782		5.3624		0.0000		17.5893		481.5120		10.7247		211.0037
14.4778		5.3707		0.0000		17.5977		481.4987		10.7414		211.1037
14.4766		5.3791		0.0000		17.6060		481.4588		10.7581		211.2037
14.4764		5.3874		0.0000		17.6144		481.4521		10.7748		211.3037
14.4794		5.3963		0.0000		17.6233		481.5519		10.7927		211.4037
14.4812		5.4047		0.0000		17.6316		481.6118		10.8094		211.5037
14.4808		5.4125		0.0000		17.6394		481.5985		10.8249		211.6037
14.4802		5.4208		0.0000		17.6478		481.5785		10.8416		211.7037
14.4806		5.4289		0.0000		17.6558		481.5919		10.8578		211.8037
14.4808		5.4375		0.0000		17.6645		481.5985		10.8751		211.9037
14.4810		5.4459		0.0000		17.6728		481.6051		10.8918		212.0037
14.4816		5.4545		0.0000		17.6815		481.6251		10.9090		212.1037
14.4826		5.4629		0.0000		17.6898		481.6584		10.9257		212.2038
14.4814		5.4712		0.0000		17.6982		481.6184		10.9424		212.3038
14.4816		5.4787		0.0000		17.7057		481.6251		10.9574		212.4038
14.4804		5.4874		0.0000		17.7143		481.5852		10.9747		212.5038
14.4804		5.4957		0.0000		17.7227		481.5852		10.9914		212.6038
14.4808		5.5041		0.0000		17.7310		481.5985		11.0081		212.7038
14.4798		5.5124		0.0000		17.7394		481.5652		11.0248		212.8038
14.4798		5.5210		0.0000		17.7480		481.5652		11.0421		212.9038
14.4784		5.5297		0.0000		17.7566		481.5187		11.0594		213.0038
14.4786		5.5378		0.0000		17.7647		481.5253		11.0755		213.1038
14.4796		5.5458		0.0000		17.7728		481.5586		11.0916		213.2038
14.4810		5.5539		0.0000		17.7808		481.6051		11.1078		213.3038
14.4828		5.5622		0.0000		17.7892		481.6650		11.1245		213.4038
14.4818		5.5706		0.0000		17.7975		481.6317		11.1412		213.5038
14.4810		5.5795		0.0000		17.8065		481.6051		11.1590		213.6038
14.4798		5.5879		0.0000		17.8148		481.5652		11.1757		213.7038
14.4802		5.5962		0.0000		17.8232		481.5785		11.1924		213.8038
14.4814		5.6043		0.0000		17.8312		481.6184		11.2086		213.9039
14.4822		5.6123		0.0000		17.8393		481.6450		11.2247		214.0039
14.4822		5.6207		0.0000		17.8476		481.6450		11.2414		214.1039
14.4816		5.6290		0.0000		17.8560		481.6251		11.2581		214.2039
14.4818		5.6377		0.0000		17.8646		481.6317		11.2754		214.3039
14.4826		5.6460		0.0000		17.8730		481.6584		11.2921		214.4039
14.4852		5.6547		0.0000		17.8816		481.7448		11.3094		214.5039
14.4870		5.6625		0.0000		17.8894		481.8047		11.3249		214.6039
14.4876		5.6708		0.0000		17.8978		481.8246		11.3416		214.7039
14.4870		5.6786		0.0000		17.9055		481.8047		11.3572		214.8039
14.4852		5.6872		0.0000		17.9142		481.7448		11.3745		214.9039
14.4842		5.6959		0.0000		17.9228		481.7115		11.3917		215.0039
14.4830		5.7045		0.0000		17.9315		481.6716		11.4090		215.1039
14.4838		5.7129		0.0000		17.9398		481.6982		11.4257		215.2039
14.4840		5.7212		0.0000		17.9482		481.7049		11.4424		215.3039
14.4852		5.7287		0.0000		17.9556		481.7448		11.4574		215.4039
14.4856		5.7373		0.0000		17.9643		481.7581		11.4747		215.5040
14.4854		5.7454		0.0000		17.9724		481.7515		11.4908		215.6040
14.4864		5.7540		0.0000		17.9810		481.7847		11.5081		215.7040
14.4862		5.7627		0.0000		17.9896		481.7781		11.5254		215.8040
14.4860		5.7713		0.0000		17.9983		481.7714		11.5426		215.9040
14.4856		5.7797		0.0000		18.0066		481.7581		11.5593		216.0040
14.4852		5.7877		0.0000		18.0147		481.7448		11.5755		216.1040
14.4852		5.7958		0.0000		18.0228		481.7448		11.5916		216.2040
14.4860		5.8039		0.0000		18.0308		481.7714		11.6077		216.3040
14.4878		5.8122		0.0000		18.0392		481.8313		11.6244		216.4040
14.4872		5.8209		0.0000		18.0478		481.8113		11.6417		216.5040
14.4858		5.8295		0.0000		18.0564		481.7648		11.6590		216.6040
14.4840		5.8378		0.0000		18.0648		481.7049		11.6757		216.7040
14.4836		5.8459		0.0000		18.0729		481.6916		11.6918		216.8040
14.4850		5.8543		0.0000		18.0812		481.7382		11.7085		216.9040
14.4868		5.8626		0.0000		18.0896		481.7980		11.7252		217.0040
14.4882		5.8707		0.0000		18.0976		481.8446		11.7414		217.1040
14.4880		5.8790		0.0000		18.1060		481.8379		11.7581		217.2041
14.4880		5.8871		0.0000		18.1140		481.8379		11.7742		217.3041
14.4874		5.8960		0.0000		18.1230		481.8180		11.7920		217.4041
14.4874		5.9044		0.0000		18.1313		481.8180		11.8088		217.5041
14.4892		5.9127		0.0000		18.1397		481.8778		11.8255		217.6041
14.4900		5.9211		0.0000		18.1480		481.9044		11.8422		217.7041
14.4890		5.9289		0.0000		18.1558		481.8712		11.8577		217.8041
14.4884		5.9372		0.0000		18.1642		481.8512		11.8744		217.9041
14.4882		5.9458		0.0000		18.1728		481.8446		11.8917		218.0041
14.4880		5.9542		0.0000		18.1812		481.8379		11.9084		218.1041
14.4876		5.9628		0.0000		18.1898		481.8246		11.9257		218.2041
14.4872		5.9712		0.0000		18.1981		481.8113		11.9424		218.3041
14.4874		5.9793		0.0000		18.2062		481.8180		11.9585		218.4041
14.4878		5.9873		0.0000		18.2143		481.8313		11.9746		218.5041
14.4886		5.9957		0.0000		18.2226		481.8579		11.9913		218.6041
14.4896		6.0037		0.0000		18.2307		481.8911		12.0075		218.7041
14.4902		6.0124		0.0000		18.2393		481.9111		12.0248		218.8042
14.4904		6.0210		0.0000		18.2480		481.9178		12.0420		218.9042
14.4904		6.0291		0.0000		18.2560		481.9178		12.0582		219.0042
14.4898		6.0377		0.0000		18.2647		481.8978		12.0754		219.1042
14.4896		6.0458		0.0000		18.2727		481.8911		12.0916		219.2042
14.4896		6.0538		0.0000		18.2808		481.8911		12.1077		219.3042
14.4898		6.0622		0.0000		18.2892		481.8978		12.1244		219.4042
14.4894		6.0708		0.0000		18.2978		481.8845		12.1417		219.5042
14.4890		6.0792		0.0000		18.3061		481.8712		12.1584		219.6042
14.4884		6.0875		0.0000		18.3145		481.8512		12.1751		219.7042
14.4882		6.0962		0.0000		18.3231		481.8446		12.1924		219.8042
14.4894		6.1042		0.0000		18.3312		481.8845		12.2085		219.9042
14.4916		6.1123		0.0000		18.3393		481.9577		12.2246		220.0042
14.4920		6.1207		0.0000		18.3476		481.9709		12.2413		220.1042
14.4922		6.1290		0.0000		18.3560		481.9776		12.2580		220.2042
14.4916		6.1374		0.0000		18.3643		481.9577		12.2747		220.3042
14.4914		6.1460		0.0000		18.3730		481.9510		12.2920		220.4043
14.4918		6.1544		0.0000		18.3813		481.9643		12.3087		220.5043
14.4914		6.1627		0.0000		18.3897		481.9510		12.3254		220.6043
14.4924		6.1708		0.0000		18.3977		481.9843		12.3416		220.7043
14.4918		6.1791		0.0000		18.4061		481.9643		12.3583		220.8043
14.4906		6.1872		0.0000		18.4141		481.9244		12.3744		220.9043
14.4894		6.1955		0.0000		18.4225		481.8845		12.3911		221.0043
14.4888		6.2042		0.0000		18.4311		481.8645		12.4084		221.1043
14.4900		6.2125		0.0000		18.4395		481.9044		12.4251		221.2043
14.4896		6.2212		0.0000		18.4481		481.8911		12.4424		221.3043
14.4908		6.2290		0.0000		18.4559		481.9311		12.4579		221.4043
14.4896		6.2373		0.0000		18.4643		481.8911		12.4746		221.5043
14.4894		6.2457		0.0000		18.4726		481.8845		12.4913		221.6043
14.4906		6.2540		0.0000		18.4810		481.9244		12.5080		221.7043
14.4910		6.2624		0.0000		18.4893		481.9377		12.5247		221.8043
14.4912		6.2710		0.0000		18.4980		481.9443		12.5420		221.9043
14.4902		6.2794		0.0000		18.5063		481.9111		12.5587		222.0043
14.4898		6.2877		0.0000		18.5147		481.8978		12.5754		222.1044
14.4898		6.2958		0.0000		18.5227		481.8978		12.5915		222.2044
14.4912		6.3035		0.0000		18.5305		481.9443		12.6071		222.3044
14.4920		6.3122		0.0000		18.5391		481.9709		12.6244		222.4044
14.4926		6.3205		0.0000		18.5475		481.9909		12.6411		222.5044
14.4932		6.3292		0.0000		18.5561		482.0109		12.6584		222.6044
14.4930		6.3378		0.0000		18.5648		482.0042		12.6756		222.7044
14.4932		6.3462		0.0000		18.5731		482.0109		12.6923		222.8044
14.4936		6.3545		0.0000		18.5815		482.0242		12.7090		222.9044
14.4944		6.3623		0.0000		18.5892		482.0508		12.7246		223.0044
14.4946		6.3706		0.0000		18.5976		482.0574		12.7413		223.1044
14.4938		6.3790		0.0000		18.6060		482.0309		12.7580		223.2044
14.4928		6.3874		0.0000		18.6143		481.9976		12.7747		223.3044
14.4908		6.3957		0.0000		18.6227		481.9311		12.7914		223.4044
14.4910		6.4043		0.0000		18.6313		481.9377		12.8087		223.5044
14.4906		6.4130		0.0000		18.6399		481.9244		12.8260		223.6044
14.4908		6.4210		0.0000		18.6480		481.9311		12.8421		223.7045
14.4912		6.4288		0.0000		18.6558		481.9443		12.8576		223.8045
14.4908		6.4372		0.0000		18.6641		481.9311		12.8744		223.9045
14.4914		6.4455		0.0000		18.6725		481.9510		12.8911		224.0045
14.4912		6.4542		0.0000		18.6811		481.9443		12.9083		224.1045
14.4914		6.4625		0.0000		18.6895		481.9510		12.9250		224.2045
14.4908		6.4712		0.0000		18.6981		481.9311		12.9423		224.3045
14.4906		6.4795		0.0000		18.7065		481.9244		12.9590		224.4045
14.4924		6.4870		0.0000		18.7140		481.9843		12.9740		224.5045
14.4920		6.4956		0.0000		18.7226		481.9709		12.9913		224.6045
14.4922		6.5040		0.0000		18.7309		481.9776		13.0080		224.7045
14.4932		6.5123		0.0000		18.7393		482.0109		13.0247		224.8045
14.4924		6.5210		0.0000		18.7479		481.9843		13.0420		224.9045
14.4912		6.5293		0.0000		18.7563		481.9443		13.0587		225.0045
14.4902		6.5380		0.0000		18.7649		481.9111		13.0760		225.1045
14.4900		6.5460		0.0000		18.7730		481.9044		13.0921		225.2045
14.4914		6.5541		0.0000		18.7811		481.9510		13.1082		225.3046
14.4942		6.5622		0.0000		18.7891		482.0441		13.1243		225.4046
14.4948		6.5708		0.0000		18.7978		482.0641		13.1416		225.5046
14.4942		6.5789		0.0000		18.8058		482.0441		13.1577		225.6046
14.4936		6.5878		0.0000		18.8148		482.0242		13.1756		225.7046
14.4936		6.5962		0.0000		18.8231		482.0242		13.1923		225.8046
14.4938		6.6045		0.0000		18.8315		482.0309		13.2090		225.9046
14.4950		6.6126		0.0000		18.8395		482.0707		13.2251		226.0046
14.4956		6.6206		0.0000		18.8476		482.0907		13.2413		226.1046
14.4946		6.6290		0.0000		18.8559		482.0574		13.2580		226.2046
14.4932		6.6370		0.0000		18.8640		482.0109		13.2741		226.3046
14.4928		6.6457		0.0000		18.8726		481.9976		13.2914		226.4046
14.4918		6.6543		0.0000		18.8813		481.9643		13.3087		226.5046
14.4922		6.6627		0.0000		18.8896		481.9776		13.3254		226.6046
14.4936		6.6710		0.0000		18.8980		482.0242		13.3421		226.7046
14.4946		6.6791		0.0000		18.9060		482.0574		13.3582		226.8046
14.4950		6.6872		0.0000		18.9141		482.0707		13.3743		226.9046
14.4942		6.6955		0.0000		18.9225		482.0441		13.3910		227.0047
14.4934		6.7042		0.0000		18.9311		482.0175		13.4083		227.1047
14.4936		6.7125		0.0000		18.9395		482.0242		13.4250		227.2047
14.4930		6.7211		0.0000		18.9481		482.0042		13.4423		227.3047
14.4932		6.7295		0.0000		18.9564		482.0109		13.4590		227.4047
14.4926		6.7376		0.0000		18.9645		481.9909		13.4751		227.5047
14.4926		6.7456		0.0000		18.9726		481.9909		13.4912		227.6047
14.4928		6.7540		0.0000		18.9809		481.9976		13.5080		227.7047
14.4922		6.7620		0.0000		18.9890		481.9776		13.5241		227.8047
14.4926		6.7707		0.0000		18.9976		481.9909		13.5414		227.9047
14.4920		6.7793		0.0000		19.0063		481.9709		13.5586		228.0047
14.4916		6.7880		0.0000		19.0149		481.9577		13.5759		228.1047
14.4912		6.7960		0.0000		19.0230		481.9443		13.5920		228.2047
14.4926		6.8044		0.0000		19.0313		481.9909		13.6088		228.3047
14.4944		6.8122		0.0000		19.0391		482.0508		13.6243		228.4047
14.4964		6.8205		0.0000		19.0475		482.1173		13.6410		228.5047
14.4958		6.8289		0.0000		19.0558		482.0974		13.6577		228.6048
14.4950		6.8375		0.0000		19.0644		482.0707		13.6750		228.7048
14.4936		6.8458		0.0000		19.0728		482.0242		13.6917		228.8048
14.4926		6.8545		0.0000		19.0814		481.9909		13.7090		228.9048
14.4938		6.8626		0.0000		19.0895		482.0309		13.7251		229.0048
14.4936		6.8709		0.0000		19.0979		482.0242		13.7418		229.1048
14.4936		6.8790		0.0000		19.1059		482.0242		13.7579		229.2048
14.4932		6.8873		0.0000		19.1143		482.0109		13.7746		229.3048
14.4918		6.8960		0.0000		19.1229		481.9643		13.7919		229.4048
14.4922		6.9043		0.0000		19.1313		481.9776		13.8086		229.5048
14.4922		6.9130		0.0000		19.1399		481.9776		13.8259		229.6048
14.4936		6.9207		0.0000		19.1477		482.0242		13.8415		229.7048
14.4924		6.9294		0.0000		19.1563		481.9843		13.8587		229.8048
14.4918		6.9374		0.0000		19.1644		481.9643		13.8749		229.9048
14.4918		6.9452		0.0000		19.1722		481.9643		13.8904		230.0048
14.4924		6.9541		0.0000		19.1811		481.9843		13.9083		230.1048
14.4932		6.9625		0.0000		19.1894		482.0109		13.9250		230.2048
14.4928		6.9711		0.0000		19.1981		481.9976		13.9423		230.3049
14.4922		6.9795		0.0000		19.2064		481.9776		13.9590		230.4049
14.4916		6.9878		0.0000		19.2148		481.9577		13.9757		230.5049
14.4920		6.9956		0.0000		19.2226		481.9709		13.9912		230.6049
14.4934		7.0040		0.0000		19.2309		482.0175		14.0079		230.7049
14.4948		7.0120		0.0000		19.2390		482.0641		14.0240		230.8049
14.4966		7.0207		0.0000		19.2476		482.1240		14.0413		230.9049
14.4954		7.0293		0.0000		19.2563		482.0840		14.0586		231.0049
14.4942		7.0374		0.0000		19.2643		482.0441		14.0747		231.1049
14.4920		7.0463		0.0000		19.2732		481.9709		14.0926		231.2049
14.4914		7.0541		0.0000		19.2810		481.9510		14.1081		231.3049
14.4918		7.0621		0.0000		19.2891		481.9643		14.1243		231.4049
14.4924		7.0708		0.0000		19.2977		481.9843		14.1416		231.5049
14.4926		7.0791		0.0000		19.3061		481.9909		14.1583		231.6049
14.4918		7.0875		0.0000		19.3144		481.9643		14.1750		231.7049
14.4908		7.0958		0.0000		19.3228		481.9311		14.1917		231.8049
14.4912		7.1045		0.0000		19.3314		481.9443		14.2089		231.9050
14.4928		7.1128		0.0000		19.3398		481.9976		14.2256		232.0050
14.4942		7.1203		0.0000		19.3473		482.0441		14.2406		232.1050
14.4930		7.1290		0.0000		19.3559		482.0042		14.2579		232.2050
14.4922		7.1373		0.0000		19.3643		481.9776		14.2746		232.3050
14.4920		7.1459		0.0000		19.3729		481.9709		14.2919		232.4050
14.4922		7.1543		0.0000		19.3812		481.9776		14.3086		232.5050
14.4924		7.1629		0.0000		19.3899		481.9843		14.3259		232.6050
14.4922		7.1713		0.0000		19.3982		481.9776		14.3426		232.7050
14.4916		7.1794		0.0000		19.4063		481.9577		14.3587		232.8050
14.4908		7.1874		0.0000		19.4144		481.9311		14.3748		232.9050
14.4906		7.1955		0.0000		19.4224		481.9244		14.3910		233.0050
14.4908		7.2041		0.0000		19.4311		481.9311		14.4082		233.1050
14.4920		7.2125		0.0000		19.4394		481.9709		14.4249		233.2050
14.4918		7.2208		0.0000		19.4478		481.9643		14.4417		233.3050
14.4920		7.2298		0.0000		19.4567		481.9709		14.4595		233.4050
14.4924		7.2378		0.0000		19.4648		481.9843		14.4756		233.5051
14.4926		7.2459		0.0000		19.4728		481.9909		14.4918		233.6051
14.4932		7.2539		0.0000		19.4809		482.0109		14.5079		233.7051
14.4948		7.2626		0.0000		19.4895		482.0641		14.5252		233.8051
14.4952		7.2706		0.0000		19.4976		482.0774		14.5413		233.9051
14.4942		7.2793		0.0000		19.5062		482.0441		14.5586		234.0051
14.4928		7.2876		0.0000		19.5146		481.9976		14.5753		234.1051
14.4926		7.2960		0.0000		19.5229		481.9909		14.5920		234.2051
14.4930		7.3046		0.0000		19.5316		482.0042		14.6093		234.3051
14.4940		7.3124		0.0000		19.5394		482.0375		14.6248		234.4051
14.4944		7.3208		0.0000		19.5477		482.0508		14.6415		234.5051
14.4930		7.3288		0.0000		19.5558		482.0042		14.6576		234.6051
14.4918		7.3375		0.0000		19.5644		481.9643		14.6749		234.7051
14.4908		7.3461		0.0000		19.5731		481.9311		14.6922		234.8051
14.4912		7.3545		0.0000		19.5814		481.9443		14.7089		234.9051
14.4920		7.3628		0.0000		19.5898		481.9709		14.7256		235.0051
14.4914		7.3709		0.0000		19.5978		481.9510		14.7417		235.1051
14.4906		7.3789		0.0000		19.6059		481.9244		14.7579		235.2052
14.4900		7.3873		0.0000		19.6142		481.9044		14.7746		235.3052
14.4896		7.3956		0.0000		19.6226		481.8911		14.7913		235.4052
14.4892		7.4040		0.0000		19.6309		481.8778		14.8080		235.5052
14.4900		7.4129		0.0000		19.6399		481.9044		14.8258		235.6052
14.4900		7.4213		0.0000		19.6482		481.9044		14.8425		235.7052
14.4884		7.4296		0.0000		19.6566		481.8512		14.8592		235.8052
14.4888		7.4371		0.0000		19.6641		481.8645		14.8742		235.9052
14.4880		7.4458		0.0000		19.6727		481.8379		14.8915		236.0052
14.4882		7.4541		0.0000		19.6811		481.8446		14.9082		236.1052
14.4888		7.4625		0.0000		19.6894		481.8645		14.9249		236.2052
14.4884		7.4711		0.0000		19.6980		481.8512		14.9422		236.3052
14.4872		7.4794		0.0000		19.7064		481.8113		14.9589		236.4052
14.4872		7.4878		0.0000		19.7148		481.8113		14.9756		236.5052
14.4890		7.4962		0.0000		19.7231		481.8712		14.9923		236.6052
14.4900		7.5039		0.0000		19.7309		481.9044		15.0079		236.7052
14.4914		7.5123		0.0000		19.7392		481.9510		15.0246		236.8053
14.4908		7.5203		0.0000		19.7473		481.9311		15.0407		236.9053
14.4894		7.5293		0.0000		19.7562		481.8845		15.0585		237.0053
14.4888		7.5379		0.0000		19.7649		481.8645		15.0758		237.1053
14.4882		7.5463		0.0000		19.7732		481.8446		15.0925		237.2053
14.4892		7.5543		0.0000		19.7813		481.8778		15.1087		237.3053
14.4896		7.5627		0.0000		19.7896		481.8911		15.1254		237.4053
14.4896		7.5707		0.0000		19.7977		481.8911		15.1415		237.5053
14.4882		7.5791		0.0000		19.8060		481.8446		15.1582		237.6053
14.4864		7.5872		0.0000		19.8141		481.7847		15.1743		237.7053
14.4864		7.5958		0.0000		19.8228		481.7847		15.1916		237.8053
14.4860		7.6047		0.0000		19.8317		481.7714		15.2095		237.9053
14.4878		7.6128		0.0000		19.8397		481.8313		15.2256		238.0053
14.4878		7.6211		0.0000		19.8481		481.8313		15.2423		238.1053
14.4866		7.6292		0.0000		19.8562		481.7914		15.2584		238.2053
14.4864		7.6373		0.0000		19.8642		481.7847		15.2745		238.3053
14.4858		7.6459		0.0000		19.8729		481.7648		15.2918		238.4053
14.4864		7.6543		0.0000		19.8812		481.7847		15.3085		238.5054
14.4866		7.6629		0.0000		19.8899		481.7914		15.3258		238.6054
14.4860		7.6713		0.0000		19.8982		481.7714		15.3425		238.7054
14.4852		7.6796		0.0000		19.9066		481.7448		15.3592		238.8054
14.4850		7.6877		0.0000		19.9146		481.7382		15.3753		238.9054
14.4844		7.6957		0.0000		19.9227		481.7182		15.3915		239.0054
14.4846		7.7041		0.0000		19.9310		481.7249		15.4082		239.1054
14.4848		7.7122		0.0000		19.9391		481.7315		15.4243		239.2054
14.4852		7.7211		0.0000		19.9480		481.7448		15.4422		239.3054
14.4850		7.7294		0.0000		19.9564		481.7382		15.4589		239.4054
14.4836		7.7381		0.0000		19.9650		481.6916		15.4761		239.5054
14.4834		7.7461		0.0000		19.9731		481.6850		15.4923		239.6054
14.4838		7.7542		0.0000		19.9812		481.6982		15.5084		239.7054
14.4848		7.7623		0.0000		19.9892		481.7315		15.5245		239.8054
14.4848		7.7703		0.0000		19.9973		481.7315		15.5407		239.9054
14.4836		7.7793		0.0000		20.0062		481.6916		15.5585		240.0054
14.4826		7.7876		0.0000		20.0146		481.6584		15.5752		240.1055
14.4816		7.7962		0.0000		20.0232		481.6251		15.5925		240.2055
14.4808		7.8046		0.0000		20.0316		481.5985		15.6092		240.3055
14.4808		7.8127		0.0000		20.0396		481.5985		15.6253		240.4055
14.4818		7.8204		0.0000		20.0474		481.6317		15.6409		240.5055
14.4826		7.8291		0.0000		20.0560		481.6584		15.6582		240.6055
14.4826		7.8374		0.0000		20.0644		481.6584		15.6749		240.7055
14.4818		7.8461		0.0000		20.0730		481.6317		15.6921		240.8055
14.4814		7.8541		0.0000		20.0811		481.6184		15.7083		240.9055
14.4818		7.8631		0.0000		20.0900		481.6317		15.7261		241.0055
14.4824		7.8711		0.0000		20.0981		481.6517		15.7423		241.1055
14.4828		7.8792		0.0000		20.1061		481.6650		15.7584		241.2055
14.4824		7.8873		0.0000		20.1142		481.6517		15.7745		241.3055
14.4820		7.8953		0.0000		20.1223		481.6384		15.7906		241.4055
14.4822		7.9042		0.0000		20.1312		481.6450		15.8085		241.5055
14.4822		7.9126		0.0000		20.1396		481.6450		15.8252		241.6055
14.4812		7.9210		0.0000		20.1479		481.6118		15.8419		241.7056
14.4792		7.9296		0.0000		20.1565		481.5453		15.8592		241.8056
14.4788		7.9377		0.0000		20.1646		481.5320		15.8753		241.9056
14.4792		7.9457		0.0000		20.1727		481.5453		15.8914		242.0056
14.4802		7.9538		0.0000		20.1807		481.5785		15.9076		242.1056
14.4810		7.9624		0.0000		20.1894		481.6051		15.9249		242.2056
14.4802		7.9711		0.0000		20.1980		481.5785		15.9421		242.3056
14.4786		7.9794		0.0000		20.2064		481.5253		15.9588		242.4056
14.4778		7.9875		0.0000		20.2144		481.4987		15.9750		242.5056
14.4768		7.9964		0.0000		20.2234		481.4655		15.9928		242.6056
14.4766		8.0042		0.0000		20.2311		481.4588		16.0084		242.7056
14.4770		8.0125		0.0000		20.2395		481.4721		16.0251		242.8056
14.4764		8.0206		0.0000		20.2476		481.4521		16.0412		242.9056
14.4758		8.0292		0.0000		20.2562		481.4322		16.0585		243.0056
14.4746		8.0379		0.0000		20.2648		481.3923		16.0758		243.1056
14.4744		8.0459		0.0000		20.2729		481.3856		16.0919		243.2056
14.4748		8.0546		0.0000		20.2815		481.3989		16.1092		243.3056
14.4760		8.0624		0.0000		20.2893		481.4388		16.1247		243.4057
14.4768		8.0710		0.0000		20.2980		481.4655		16.1420		243.5057
14.4758		8.0791		0.0000		20.3060		481.4322		16.1581		243.6057
14.4744		8.0874		0.0000		20.3144		481.3856		16.1748		243.7057
14.4732		8.0961		0.0000		20.3230		481.3457		16.1921		243.8057
14.4730		8.1044		0.0000		20.3314		481.3391		16.2088		243.9057
14.4744		8.1128		0.0000		20.3397		481.3856		16.2255		244.0057
14.4742		8.1214		0.0000		20.3484		481.3790		16.2428		244.1057
14.4740		8.1295		0.0000		20.3564		481.3723		16.2589		244.2057
14.4736		8.1370		0.0000		20.3639		481.3590		16.2739		244.3057
14.4726		8.1456		0.0000		20.3725		481.3258		16.2912		244.4057
14.4724		8.1542		0.0000		20.3812		481.3191		16.3085		244.5057
14.4730		8.1626		0.0000		20.3895		481.3391		16.3252		244.6057
14.4744		8.1712		0.0000		20.3982		481.3856		16.3424		244.7057
14.4738		8.1796		0.0000		20.4065		481.3657		16.3592		244.8057
14.4744		8.1879		0.0000		20.4149		481.3856		16.3759		244.9057
14.4744		8.1960		0.0000		20.4229		481.3856		16.3920		245.0058
14.4752		8.2038		0.0000		20.4307		481.4122		16.4075		245.1058
14.4760		8.2124		0.0000		20.4394		481.4388		16.4248		245.2058
14.4752		8.2210		0.0000		20.4480		481.4122		16.4421		245.3058
14.4738		8.2291		0.0000		20.4561		481.3657		16.4582		245.4058
14.4718		8.2380		0.0000		20.4650		481.2992		16.4761		245.5058
14.4708		8.2461		0.0000		20.4731		481.2659		16.4922		245.6058
14.4702		8.2545		0.0000		20.4814		481.2459		16.5089		245.7058
14.4708		8.2625		0.0000		20.4895		481.2659		16.5250		245.8058
14.4714		8.2706		0.0000		20.4975		481.2859		16.5412		245.9058
14.4706		8.2792		0.0000		20.5062		481.2592		16.5584		246.0058
14.4702		8.2876		0.0000		20.5145		481.2459		16.5752		246.1058
14.4692		8.2962		0.0000		20.5232		481.2127		16.5924		246.2058
14.4684		8.3046		0.0000		20.5315		481.1861		16.6091		246.3058
14.4676		8.3129		0.0000		20.5399		481.1595		16.6258		246.4058
14.4680		8.3204		0.0000		20.5474		481.1728		16.6408		246.5058
14.4676		8.3290		0.0000		20.5560		481.1595		16.6581		246.6059
14.4668		8.3374		0.0000		20.5644		481.1329		16.6748		246.7059
14.4666		8.3458		0.0000		20.5727		481.1262		16.6915		246.8059
14.4654		8.3544		0.0000		20.5813		481.0863		16.7088		246.9059
14.4654		8.3630		0.0000		20.5900		481.0863		16.7261		247.0059
14.4652		8.3714		0.0000		20.5983		481.0797		16.7428		247.1059
14.4650		8.3794		0.0000		20.6064		481.0730		16.7589		247.2059
14.4644		8.3875		0.0000		20.6145		481.0531		16.7750		247.3059
14.4642		8.3959		0.0000		20.6228		481.0464		16.7917		247.4059
14.4650		8.4039		0.0000		20.6309		481.0730		16.8079		247.5059
14.4642		8.4123		0.0000		20.6392		481.0464		16.8246		247.6059
14.4654		8.4212		0.0000		20.6482		481.0863		16.8424		247.7059
14.4646		8.4293		0.0000		20.6562		481.0597		16.8585		247.8059
14.4636		8.4379		0.0000		20.6649		481.0265		16.8758		247.9059
14.4630		8.4460		0.0000		20.6729		481.0065		16.8920		248.0059
14.4624		8.4543		0.0000		20.6813		480.9865		16.9087		248.1059
14.4636		8.4624		0.0000		20.6893		481.0265		16.9248		248.2059
14.4640		8.4710		0.0000		20.6980		481.0397		16.9421		248.3060
14.4628		8.4794		0.0000		20.7063		480.9998		16.9588		248.4060
14.4610		8.4877		0.0000		20.7147		480.9400		16.9755		248.5060
14.4596		8.4964		0.0000		20.7233		480.8934		16.9928		248.6060
14.4602		8.5042		0.0000		20.7311		480.9134		17.0083		248.7060
14.4604		8.5128		0.0000		20.7397		480.9200		17.0256		248.8060
14.4616		8.5203		0.0000		20.7472		480.9599		17.0406		248.9060
14.4614		8.5292		0.0000		20.7562		480.9533		17.0584		249.0060
14.4596		8.5373		0.0000		20.7642		480.8934		17.0745		249.1060
14.4586		8.5462		0.0000		20.7732		480.8602		17.0924		249.2060
14.4580		8.5546		0.0000		20.7815		480.8402		17.1091		249.3060
14.4582		8.5629		0.0000		20.7899		480.8468		17.1258		249.4060
14.4580		8.5710		0.0000		20.7979		480.8402		17.1419		249.5060
14.4568		8.5793		0.0000		20.8063		480.8003		17.1586		249.6060
14.4566		8.5874		0.0000		20.8143		480.7936		17.1748		249.7060
14.4562		8.5957		0.0000		20.8227		480.7803		17.1915		249.8060
14.4552		8.6044		0.0000		20.8313		480.7471		17.2088		249.9061
14.4542		8.6127		0.0000		20.8397		480.7138		17.2255		250.0061
14.4542		8.6211		0.0000		20.8480		480.7138		17.2422		250.1061
14.4534		8.6297		0.0000		20.8567		480.6872		17.2594		250.2061
14.4530		8.6375		0.0000		20.8644		480.6739		17.2750		250.3061
14.4530		8.6458		0.0000		20.8728		480.6739		17.2917		250.4061
14.4522		8.6539		0.0000		20.8809		480.6473		17.3078		250.5061
14.4524		8.6626		0.0000		20.8895		480.6540		17.3251		250.6061
14.4526		8.6712		0.0000		20.8981		480.6606		17.3424		250.7061
14.4526		8.6795		0.0000		20.9065		480.6606		17.3591		250.8061
14.4514		8.6882		0.0000		20.9151		480.6207		17.3764		250.9061
14.4502		8.6960		0.0000		20.9229		480.5808		17.3919		251.0061
14.4502		8.7037		0.0000		20.9307		480.5808		17.4075		251.1061
14.4488		8.7124		0.0000		20.9393		480.5342		17.4248		251.2061
14.4486		8.7207		0.0000		20.9477		480.5276		17.4415		251.3061
14.4478		8.7294		0.0000		20.9563		480.5010		17.4587		251.4061
14.4468		8.7377		0.0000		20.9647		480.4677		17.4754		251.5061
14.4464		8.7464		0.0000		20.9733		480.4544		17.4927		251.6062
14.4456		8.7547		0.0000		20.9817		480.4278		17.5094		251.7062
14.4474		8.7628		0.0000		20.9897		480.4877		17.5256		251.8062
14.4476		8.7708		0.0000		20.9978		480.4943		17.5417		251.9062
14.4464		8.7792		0.0000		21.0061		480.4544		17.5584		252.0062
14.4446		8.7873		0.0000		21.0142		480.3946		17.5745		252.1062
14.4424		8.7962		0.0000		21.0231		480.3214		17.5924		252.2062
14.4414		8.8045		0.0000		21.0315		480.2881		17.6091		252.3062
14.4406		8.8132		0.0000		21.0401		480.2615		17.6264		252.4062
14.4420		8.8212		0.0000		21.0482		480.3081		17.6425		252.5062
14.4432		8.8293		0.0000		21.0563		480.3480		17.6586		252.6062
14.4430		8.8374		0.0000		21.0643		480.3413		17.6747		252.7062
14.4428		8.8457		0.0000		21.0727		480.3347		17.6914		252.8062
14.4426		8.8544		0.0000		21.0813		480.3280		17.7087		252.9062
14.4422		8.8630		0.0000		21.0900		480.3147		17.7260		253.0062
14.4416		8.8711		0.0000		21.0980		480.2948		17.7421		253.1062
14.4410		8.8797		0.0000		21.1067		480.2748		17.7594		253.2063
14.4396		8.8878		0.0000		21.1147		480.2283		17.7755		253.3063
14.4386		8.8958		0.0000		21.1228		480.1950		17.7917		253.4063
14.4382		8.9039		0.0000		21.1308		480.1817		17.8078		253.5063
14.4384		8.9125		0.0000		21.1395		480.1884		17.8251		253.6063
14.4388		8.9212		0.0000		21.1481		480.2017		17.8424		253.7063
14.4368		8.9295		0.0000		21.1565		480.1351		17.8591		253.8063
14.4350		8.9379		0.0000		21.1648		480.0753		17.8758		253.9063
14.4328		8.9462		0.0000		21.1732		480.0021		17.8925		254.0063
14.4316		8.9543		0.0000		21.1812		479.9622		17.9086		254.1063
14.4318		8.9621		0.0000		21.1890		479.9688		17.9241		254.2063
14.4314		8.9710		0.0000		21.1980		479.9556		17.9420		254.3063
14.4308		8.9794		0.0000		21.2063		479.9356		17.9587		254.4063
14.4296		8.9880		0.0000		21.2149		479.8957		17.9760		254.5063
14.4284		8.9963		0.0000		21.2233		479.8558		17.9927		254.6063
14.4270		9.0047		0.0000		21.2316		479.8092		18.0094		254.7063
14.4272		9.0128		0.0000		21.2397		479.8159		18.0255		254.8064
14.4282		9.0208		0.0000		21.2478		479.8491		18.0416		254.9064
14.4270		9.0292		0.0000		21.2561		479.8092		18.0584		255.0064
14.4252		9.0375		0.0000		21.2645		479.7493		18.0751		255.1064
14.4232		9.0462		0.0000		21.2731		479.6828		18.0923		255.2064
14.4222		9.0545		0.0000		21.2815		479.6496		18.1090		255.3064
14.4218		9.0626		0.0000		21.2895		479.6363		18.1252		255.4064
14.4222		9.0712		0.0000		21.2982		479.6496		18.1424		255.5064
14.4218		9.0793		0.0000		21.3062		479.6363		18.1586		255.6064
14.4206		9.0876		0.0000		21.3146		479.5964		18.1753		255.7064
14.4192		9.0957		0.0000		21.3227		479.5498		18.1914		255.8064
14.4178		9.1041		0.0000		21.3310		479.5032		18.2081		255.9064
14.4194		9.1127		0.0000		21.3396		479.5565		18.2254		256.0064
14.4198		9.1213		0.0000		21.3483		479.5698		18.2427		256.1064
14.4188		9.1297		0.0000		21.3566		479.5365		18.2594		256.2064
14.4168		9.1378		0.0000		21.3647		479.4700		18.2755		256.3064
14.4158		9.1455		0.0000		21.3725		479.4367		18.2911		256.4064
14.4150		9.1542		0.0000		21.3811		479.4101		18.3083		256.5064
14.4150		9.1625		0.0000		21.3895		479.4101		18.3250		256.6064
14.4150		9.1709		0.0000		21.3978		479.4101		18.3417		256.7065
14.4134		9.1795		0.0000		21.4065		479.3569		18.3590		256.8065
14.4102		9.1882		0.0000		21.4151		479.2505		18.3763		256.9065
14.4082		9.1962		0.0000		21.4232		479.1840		18.3924		257.0065
14.4072		9.2046		0.0000		21.4315		479.1507		18.4091		257.1065
14.4086		9.2121		0.0000		21.4390		479.1973		18.4241		257.2065
14.4096		9.2210		0.0000		21.4479		479.2305		18.4420		257.3065
14.4086		9.2293		0.0000		21.4563		479.1973		18.4587		257.4065
14.4064		9.2377		0.0000		21.4646		479.1241		18.4754		257.5065
14.4040		9.2463		0.0000		21.4733		479.0443		18.4927		257.6065
14.4028		9.2544		0.0000		21.4813		479.0044		18.5088		257.7065
14.4018		9.2630		0.0000		21.4900		478.9711		18.5261		257.8065
14.4016		9.2708		0.0000		21.4978		478.9645		18.5416		257.9065
14.4006		9.2792		0.0000		21.5061		478.9312		18.5583		258.0065
14.3984		9.2875		0.0000		21.5145		478.8581		18.5750		258.1065
14.3966		9.2959		0.0000		21.5228		478.7982		18.5917		258.2065
14.3954		9.3045		0.0000		21.5315		478.7583		18.6090		258.3065
14.3954		9.3129		0.0000		21.5398		478.7583		18.6257		258.4066
14.3958		9.3215		0.0000		21.5484		478.7716		18.6430		258.5066
14.3952		9.3290		0.0000		21.5559		478.7516		18.6580		258.6066
14.3932		9.3376		0.0000		21.5646		478.6851		18.6752		258.7066
14.3918		9.3457		0.0000		21.5726		478.6385		18.6914		258.8066
14.3898		9.3540		0.0000		21.5810		478.5720		18.7081		258.9066
14.3880		9.3627		0.0000		21.5896		478.5121		18.7254		259.0066
14.3878		9.3713		0.0000		21.5983		478.5055		18.7426		259.1066
14.3872		9.3797		0.0000		21.6066		478.4856		18.7593		259.2066
14.3854		9.3880		0.0000		21.6150		478.4257		18.7761		259.3066
14.3862		9.3955		0.0000		21.6225		478.4523		18.7910		259.4066
14.3844		9.4042		0.0000		21.6311		478.3925		18.8083		259.5066
14.3828		9.4125		0.0000		21.6395		478.3392		18.8250		259.6066
14.3810		9.4206		0.0000		21.6475		478.2794		18.8411		259.7066
14.3788		9.4295		0.0000		21.6564		478.2062		18.8590		259.8066
14.3758		9.4381		0.0000		21.6651		478.1064		18.8763		259.9066
14.3740		9.4459		0.0000		21.6729		478.0465		18.8918		260.0067
14.3732		9.4546		0.0000		21.6815		478.0199		18.9091		260.1067
14.3738		9.4626		0.0000		21.6896		478.0399		18.9252		260.2067
14.3740		9.4707		0.0000		21.6976		478.0465		18.9414		260.3067
14.3726		9.4793		0.0000		21.7063		478.0000		18.9586		260.4067
14.3694		9.4877		0.0000		21.7146		477.8936		18.9753		260.5067
14.3674		9.4960		0.0000		21.7230		477.8271		18.9921		260.6067
14.3642		9.5047		0.0000		21.7316		477.7206		19.0093		260.7067
14.3640		9.5127		0.0000		21.7397		477.7140		19.0255		260.8067
14.3630		9.5211		0.0000		21.7480		477.6807		19.0422		260.9067
14.3616		9.5291		0.0000		21.7561		477.6342		19.0583		261.0067
14.3594		9.5375		0.0000		21.7644		477.5610		19.0750		261.1067
14.3580		9.5458		0.0000		21.7728		477.5144		19.0917		261.2067
14.3570		9.5545		0.0000		21.7814		477.4812		19.1090		261.3067
14.3564		9.5631		0.0000		21.7901		477.4612		19.1263		261.4067
14.3560		9.5715		0.0000		21.7984		477.4479		19.1430		261.5067
14.3536		9.5798		0.0000		21.8068		477.3681		19.1597		261.6068
14.3522		9.5873		0.0000		21.8143		477.3215		19.1746		261.7068
14.3494		9.5957		0.0000		21.8226		477.2284		19.1913		261.8068
14.3476		9.6040		0.0000		21.8310		477.1685		19.2080		261.9068
14.3474		9.6127		0.0000		21.8396		477.1619		19.2253		262.0068
14.3458		9.6213		0.0000		21.8483		477.1087		19.2426		262.1068
14.3436		9.6297		0.0000		21.8566		477.0355		19.2593		262.2068
14.3404		9.6380		0.0000		21.8650		476.9291		19.2760		262.3068
14.3368		9.6461		0.0000		21.8730		476.8094		19.2921		262.4068
14.3340		9.6541		0.0000		21.8811		476.7162		19.3083		262.5068
14.3322		9.6625		0.0000		21.8894		476.6564		19.3250		262.6068
14.3314		9.6706		0.0000		21.8975		476.6298		19.3411		262.7068
14.3290		9.6795		0.0000		21.9064		476.5500		19.3590		262.8068
14.3266		9.6878		0.0000		21.9148		476.4702		19.3757		262.9068
14.3250		9.6962		0.0000		21.9231		476.4169		19.3924		263.0068
14.3228		9.7048		0.0000		21.9318		476.3438		19.4096		263.1068
14.3222		9.7126		0.0000		21.9396		476.3238		19.4252		263.2068
14.3212		9.7210		0.0000		21.9479		476.2906		19.4419		263.3069
14.3182		9.7293		0.0000		21.9563		476.1908		19.4586		263.4069
14.3150		9.7377		0.0000		21.9646		476.0844		19.4753		263.5069
14.3124		9.7463		0.0000		21.9732		475.9979		19.4926		263.6069
14.3094		9.7546		0.0000		21.9816		475.8981		19.5093		263.7069
14.3078		9.7630		0.0000		21.9900		475.8449		19.5260		263.8069
14.3068		9.7711		0.0000		21.9980		475.8116		19.5421		263.9069
14.3048		9.7794		0.0000		22.0064		475.7451		19.5588		264.0069
14.3034		9.7872		0.0000		22.0141		475.6986		19.5744		264.1069
14.3008		9.7958		0.0000		22.0228		475.6121		19.5917		264.2069
14.2982		9.8045		0.0000		22.0314		475.5256		19.6089		264.3069
14.2962		9.8128		0.0000		22.0398		475.4591		19.6256		264.4069
14.2934		9.8215		0.0000		22.0484		475.3660		19.6429		264.5069
14.2906		9.8298		0.0000		22.0568		475.2729		19.6596		264.6069
14.2876		9.8379		0.0000		22.0648		475.1731		19.6758		264.7069
14.2850		9.8459		0.0000		22.0729		475.0866		19.6919		264.8069
14.2822		9.8543		0.0000		22.0812		474.9935		19.7086		264.9070
14.2798		9.8626		0.0000		22.0896		474.9137		19.7253		265.0070
14.2774		9.8710		0.0000		22.0980		474.8339		19.7420		265.1070
14.2738		9.8796		0.0000		22.1066		474.7141		19.7593		265.2070
14.2706		9.8880		0.0000		22.1149		474.6077		19.7760		265.3070
14.2678		9.8963		0.0000		22.1233		474.5146		19.7927		265.4070
14.2666		9.9038		0.0000		22.1308		474.4747		19.8077		265.5070
14.2642		9.9125		0.0000		22.1394		474.3949		19.8249		265.6070
14.2618		9.9208		0.0000		22.1478		474.3150		19.8416		265.7070
14.2586		9.9295		0.0000		22.1564		474.2086		19.8589		265.8070
14.2546		9.9381		0.0000		22.1651		474.0756		19.8762		265.9070
14.2520		9.9462		0.0000		22.1731		473.9891		19.8923		266.0070
14.2500		9.9542		0.0000		22.1812		473.9226		19.9085		266.1070
14.2456		9.9629		0.0000		22.1898		473.7762		19.9257		266.2070
14.2438		9.9706		0.0000		22.1976		473.7164		19.9413		266.3070
14.2390		9.9793		0.0000		22.2062		473.5568		19.9586		266.4070
14.2348		9.9876		0.0000		22.2146		473.4171		19.9753		266.5070
14.2312		9.9960		0.0000		22.2229		473.2974		19.9920		266.6071
14.2280		10.0046		0.0000		22.2316		473.1909		20.0093		266.7071
14.2262		10.0133		0.0000		22.2402		473.1311		20.0265		266.8071
14.2252		10.0213		0.0000		22.2483		473.0978		20.0427		266.9071
14.2220		10.0294		0.0000		22.2564		472.9914		20.0588		267.0071
14.2178		10.0375		0.0000		22.2644		472.8517		20.0749		267.1071
14.2140		10.0458		0.0000		22.2728		472.7253		20.0916		267.2071
14.2104		10.0545		0.0000		22.2814		472.6056		20.1089		267.3071
14.2070		10.0628		0.0000		22.2898		472.4925		20.1256		267.4071
14.2044		10.0714		0.0000		22.2984		472.4060		20.1429		267.5071
14.2004		10.0798		0.0000		22.3068		472.2730		20.1596		267.6071
14.1978		10.0879		0.0000		22.3148		472.1865		20.1757		267.7071
14.1938		10.0959		0.0000		22.3229		472.0535		20.1919		267.8071
14.1900		10.1043		0.0000		22.3312		471.9271		20.2086		267.9071
14.1868		10.1126		0.0000		22.3396		471.8207		20.2253		268.0071
14.1822		10.1213		0.0000		22.3482		471.6677		20.2425		268.1071
14.1774		10.1296		0.0000		22.3566		471.5081		20.2593		268.2072
14.1724		10.1383		0.0000		22.3652		471.3418		20.2765		268.3072
14.1688		10.1463		0.0000		22.3733		471.2221		20.2927		268.4072
14.1660		10.1541		0.0000		22.3811		471.1290		20.3082		268.5072
14.1622		10.1627		0.0000		22.3897		471.0026		20.3255		268.6072
14.1596		10.1708		0.0000		22.3978		470.9161		20.3416		268.7072
14.1544		10.1794		0.0000		22.4064		470.7432		20.3589		268.8072
14.1490		10.1878		0.0000		22.4148		470.5636		20.3756		268.9072
14.1432		10.1964		0.0000		22.4234		470.3707		20.3929		269.0072
14.1390		10.2048		0.0000		22.4317		470.2310		20.4096		269.1072
14.1360		10.2129		0.0000		22.4398		470.1312		20.4257		269.2072
14.1332		10.2209		0.0000		22.4479		470.0381		20.4418		269.3072
14.1302		10.2290		0.0000		22.4559		469.9383		20.4580		269.4072
14.1246		10.2376		0.0000		22.4646		469.7521		20.4753		269.5072
14.1206		10.2460		0.0000		22.4729		469.6190		20.4920		269.6072
14.1150		10.2546		0.0000		22.4816		469.4328		20.5092		269.7072
14.1114		10.2630		0.0000		22.4899		469.3131		20.5259		269.8073
14.1076		10.2716		0.0000		22.4986		469.1867		20.5432		269.9073
14.1038		10.2794		0.0000		22.5063		469.0603		20.5588		270.0073
14.0988		10.2877		0.0000		22.5147		468.8940		20.5755		270.1073
14.0934		10.2958		0.0000		22.5228		468.7144		20.5916		270.2073
14.0884		10.3044		0.0000		22.5314		468.5482		20.6089		270.3073
14.0834		10.3131		0.0000		22.5400		468.3819		20.6262		270.4073
14.0788		10.3214		0.0000		22.5484		468.2289		20.6429		270.5073
14.0746		10.3298		0.0000		22.5567		468.0892		20.6596		270.6073
14.0696		10.3373		0.0000		22.5642		467.9229		20.6745		270.7073
14.0648		10.3456		0.0000		22.5726		467.7633		20.6912		270.8073
14.0592		10.3543		0.0000		22.5812		467.5770		20.7085		270.9073
14.0548		10.3623		0.0000		22.5893		467.4307		20.7247		271.0073
14.0500		10.3707		0.0000		22.5976		467.2711		20.7414		271.1073
14.0448		10.3796		0.0000		22.6066		467.0981		20.7592		271.2073
14.0396		10.3880		0.0000		22.6149		466.9252		20.7759		271.3073
14.0344		10.3963		0.0000		22.6233		466.7522		20.7926		271.4073
14.0298		10.4044		0.0000		22.6313		466.5992		20.8088		271.5074
14.0250		10.4124		0.0000		22.6394		466.4396		20.8249		271.6074
14.0200		10.4208		0.0000		22.6477		466.2733		20.8416		271.7074
14.0140		10.4289		0.0000		22.6558		466.0738		20.8577		271.8074
14.0078		10.4378		0.0000		22.6647		465.8676		20.8756		271.9074
14.0010		10.4461		0.0000		22.6731		465.6414		20.8923		272.0074
13.9960		10.4548		0.0000		22.6817		465.4752		20.9096		272.1074
13.9916		10.4628		0.0000		22.6898		465.3288		20.9257		272.2074
13.9862		10.4709		0.0000		22.6979		465.1492		20.9418		272.3074
13.9808		10.4790		0.0000		22.7059		464.9696		20.9579		272.4074
13.9742		10.4876		0.0000		22.7146		464.7501		20.9752		272.5074
13.9684		10.4960		0.0000		22.7229		464.5572		20.9919		272.6074
13.9620		10.5043		0.0000		22.7313		464.3444		21.0086		272.7074
13.9568		10.5130		0.0000		22.7399		464.1714		21.0259		272.8074
13.9512		10.5210		0.0000		22.7480		463.9852		21.0420		272.9074
13.9448		10.5294		0.0000		22.7563		463.7723		21.0587		273.0074
13.9378		10.5374		0.0000		22.7644		463.5395		21.0749		273.1075
13.9310		10.5458		0.0000		22.7727		463.3134		21.0916		273.2075
13.9248		10.5541		0.0000		22.7811		463.1072		21.1083		273.3075
13.9190		10.5628		0.0000		22.7897		462.9143		21.1256		273.4075
13.9140		10.5711		0.0000		22.7981		462.7480		21.1423		273.5075
13.9082		10.5798		0.0000		22.8067		462.5551		21.1595		273.6075
13.9012		10.5878		0.0000		22.8148		462.3223		21.1757		273.7075
13.8940		10.5953		0.0000		22.8223		462.0829		21.1906		273.8075
13.8866		10.6042		0.0000		22.8312		461.8367		21.2085		273.9075
13.8802		10.6123		0.0000		22.8393		461.6239		21.2246		274.0075
13.8734		10.6210		0.0000		22.8479		461.3977		21.2419		274.1075
13.8666		10.6296		0.0000		22.8565		461.1716		21.2592		274.2075
13.8594		10.6379		0.0000		22.8649		460.9321		21.2759		274.3075
13.8524		10.6463		0.0000		22.8732		460.6993		21.2926		274.4075
13.8460		10.6541		0.0000		22.8810		460.4865		21.3081		274.5075
13.8398		10.6624		0.0000		22.8894		460.2803		21.3248		274.6075
13.8334		10.6708		0.0000		22.8977		460.0674		21.3416		274.7076
13.8260		10.6791		0.0000		22.9061		459.8213		21.3583		274.8076
13.8174		10.6878		0.0000		22.9147		459.5353		21.3755		274.9076
13.8096		10.6961		0.0000		22.9231		459.2759		21.3922		275.0076
13.8022		10.7045		0.0000		22.9314		459.0298		21.4089		275.1076
13.7962		10.7128		0.0000		22.9398		458.8302		21.4256		275.2076
13.7902		10.7209		0.0000		22.9478		458.6307		21.4418		275.3076
13.7832		10.7292		0.0000		22.9562		458.3979		21.4585		275.4076
13.7764		10.7376		0.0000		22.9645		458.1717		21.4752		275.5076
13.7682		10.7459		0.0000		22.9729		457.8990		21.4919		275.6076
13.7602		10.7543		0.0000		22.9812		457.6329		21.5086		275.7076
13.7520		10.7629		0.0000		22.9899		457.3603		21.5259		275.8076
13.7440		10.7713		0.0000		22.9982		457.0942		21.5426		275.9076
13.7370		10.7791		0.0000		23.0060		456.8614		21.5581		276.0076
13.7292		10.7877		0.0000		23.0147		456.6020		21.5754		276.1076
13.7214		10.7958		0.0000		23.0227		456.3426		21.5915		276.2076
13.7128		10.8038		0.0000		23.0308		456.0565		21.6077		276.3076
13.7042		10.8125		0.0000		23.0394		455.7705		21.6249		276.4077
13.6952		10.8211		0.0000		23.0481		455.4712		21.6422		276.5077
13.6862		10.8298		0.0000		23.0567		455.1719		21.6595		276.6077
13.6790		10.8378		0.0000		23.0648		454.9324		21.6756		276.7077
13.6712		10.8462		0.0000		23.0731		454.6730		21.6923		276.8077
13.6636		10.8539		0.0000		23.0809		454.4203		21.7079		276.9077
13.6550		10.8623		0.0000		23.0892		454.1342		21.7246		277.0077
13.6456		10.8706		0.0000		23.0976		453.8216		21.7413		277.1077
13.6368		10.8793		0.0000		23.1062		453.5290		21.7586		277.2077
13.6272		10.8876		0.0000		23.1146		453.2097		21.7753		277.3077
13.6188		10.8963		0.0000		23.1232		452.9303		21.7926		277.4077
13.6106		10.9046		0.0000		23.1316		452.6576		21.8093		277.5077
13.6024		10.9127		0.0000		23.1396		452.3849		21.8254		277.6077
13.5938		10.9208		0.0000		23.1477		452.0989		21.8415		277.7077
13.5848		10.9291		0.0000		23.1561		451.7996		21.8582		277.8077
13.5758		10.9375		0.0000		23.1644		451.5002		21.8749		277.9077
13.5664		10.9461		0.0000		23.1731		451.1876		21.8922		278.0078
13.5584		10.9547		0.0000		23.1817		450.9216		21.9095		278.1078
13.5490		10.9631		0.0000		23.1900		450.6089		21.9262		278.2078
13.5410		10.9712		0.0000		23.1981		450.3429		21.9423		278.3078
13.5316		10.9786		0.0000		23.2056		450.0302		21.9573		278.4078
13.5202		10.9876		0.0000		23.2145		449.6511		21.9752		278.5078
13.5104		10.9959		0.0000		23.2229		449.3252		21.9919		278.6078
13.5006		11.0043		0.0000		23.2312		448.9993		22.0086		278.7078
13.4914		11.0129		0.0000		23.2399		448.6933		22.0258		278.8078
13.4818		11.0210		0.0000		23.2479		448.3740		22.0420		278.9078
13.4720		11.0296		0.0000		23.2566		448.0481		22.0592		279.0078
13.4620		11.0371		0.0000		23.2641		447.7155		22.0742		279.1078
13.4514		11.0460		0.0000		23.2730		447.3630		22.0921		279.2078
13.4420		11.0541		0.0000		23.2811		447.0504		22.1082		279.3078
13.4318		11.0627		0.0000		23.2897		446.7111		22.1255		279.4078
13.4224		11.0708		0.0000		23.2978		446.3985		22.1416		279.5078
13.4118		11.0794		0.0000		23.3064		446.0460		22.1589		279.6078
13.4004		11.0881		0.0000		23.3150		445.6668		22.1762		279.7079
13.3906		11.0962		0.0000		23.3231		445.3409		22.1923		279.8079
13.3796		11.1042		0.0000		23.3312		444.9751		22.2084		279.9079
13.3688		11.1126		0.0000		23.3395		444.6159		22.2251		280.0079
13.3588		11.1209		0.0000		23.3479		444.2833		22.2418		280.1079
13.3478		11.1293		0.0000		23.3562		443.9175		22.2585		280.2079
13.3372		11.1379		0.0000		23.3649		443.5649		22.2758		280.3079
13.3266		11.1463		0.0000		23.3732		443.2124		22.2925		280.4079
13.3156		11.1546		0.0000		23.3816		442.8466		22.3092		280.5079
13.3044		11.1624		0.0000		23.3893		442.4741		22.3248		280.6079
13.2940		11.1707		0.0000		23.3977		442.1282		22.3415		280.7079
13.2832		11.1794		0.0000		23.4063		441.7690		22.3588		280.8079
13.2722		11.1874		0.0000		23.4144		441.4032		22.3749		280.9079
13.2596		11.1961		0.0000		23.4230		440.9841		22.3922		281.0079
13.2476		11.2044		0.0000		23.4314		440.5851		22.4089		281.1079
13.2362		11.2131		0.0000		23.4400		440.2059		22.4262		281.2079
13.2248		11.2214		0.0000		23.4484		439.8268		22.4429		281.3080
13.2136		11.2292		0.0000		23.4562		439.4543		22.4584		281.4080
13.2016		11.2376		0.0000		23.4645		439.0552		22.4751		281.5080
13.1886		11.2459		0.0000		23.4729		438.6228		22.4918		281.6080
13.1754		11.2540		0.0000		23.4809		438.1838		22.5080		281.7080
13.1626		11.2629		0.0000		23.4899		437.7581		22.5258		281.8080
13.1504		11.2713		0.0000		23.4982		437.3524		22.5425		281.9080
13.1392		11.2796		0.0000		23.5066		436.9799		22.5592		282.0080
13.1270		11.2880		0.0000		23.5149		436.5742		22.5759		282.1080
13.1150		11.2960		0.0000		23.5230		436.1751		22.5920		282.2080
13.1024		11.3041		0.0000		23.5310		435.7560		22.6082		282.3080
13.0894		11.3122		0.0000		23.5391		435.3237		22.6243		282.4080
13.0764		11.3211		0.0000		23.5480		434.8913		22.6422		282.5080
13.0626		11.3297		0.0000		23.5567		434.4324		22.6594		282.6080
13.0490		11.3381		0.0000		23.5650		433.9801		22.6761		282.7080
13.0354		11.3458		0.0000		23.5728		433.5278		22.6917		282.8080
13.0222		11.3542		0.0000		23.5812		433.0887		22.7084		282.9081
13.0086		11.3626		0.0000		23.5895		432.6365		22.7251		283.0081
12.9952		11.3709		0.0000		23.5979		432.1908		22.7418		283.1081
12.9816		11.3793		0.0000		23.6062		431.7385		22.7585		283.2081
12.9670		11.3879		0.0000		23.6148		431.2529		22.7758		283.3081
12.9530		11.3962		0.0000		23.6232		430.7873		22.7925		283.4081
12.9396		11.4046		0.0000		23.6316		430.3417		22.8092		283.5081
12.9264		11.4130		0.0000		23.6399		429.9027		22.8259		283.6081
12.9134		11.4207		0.0000		23.6477		429.4703		22.8415		283.7081
12.8990		11.4291		0.0000		23.6560		428.9914		22.8582		283.8081
12.8836		11.4374		0.0000		23.6644		428.4792		22.8749		283.9081
12.8680		11.4461		0.0000		23.6730		427.9604		22.8921		284.0081
12.8522		11.4547		0.0000		23.6817		427.4349		22.9094		284.1081
12.8366		11.4631		0.0000		23.6900		426.9161		22.9261		284.2081
12.8226		11.4714		0.0000		23.6984		426.4505		22.9428		284.3081
12.8076		11.4795		0.0000		23.7064		425.9517		22.9590		284.4081
12.7918		11.4875		0.0000		23.7145		425.4262		22.9751		284.5081
12.7750		11.4959		0.0000		23.7228		424.8674		22.9918		284.6082
12.7582		11.5042		0.0000		23.7312		424.3087		23.0085		284.7082
12.7422		11.5129		0.0000		23.7398		423.7766		23.0258		284.8082
12.7264		11.5215		0.0000		23.7485		423.2511		23.0431		284.9082
12.7110		11.5293		0.0000		23.7563		422.7390		23.0586		285.0082
12.6940		11.5379		0.0000		23.7649		422.1736		23.0759		285.1082
12.6772		11.5460		0.0000		23.7730		421.6149		23.0920		285.2082
12.6604		11.5541		0.0000		23.7810		421.0561		23.1081		285.3082
12.6430		11.5627		0.0000		23.7897		420.4774		23.1254		285.4082
12.6270		11.5708		0.0000		23.7977		419.9453		23.1416		285.5082
12.6092		11.5797		0.0000		23.8067		419.3533		23.1594		285.6082
12.5918		11.5881		0.0000		23.8150		418.7746		23.1761		285.7082
12.5734		11.5964		0.0000		23.8234		418.1627		23.1928		285.8082
12.5558		11.6045		0.0000		23.8314		417.5773		23.2089		285.9082
12.5388		11.6125		0.0000		23.8395		417.0120		23.2251		286.0082
12.5224		11.6206		0.0000		23.8476		416.4666		23.2412		286.1082
12.5048		11.6292		0.0000		23.8562		415.8812		23.2585		286.2083
12.4852		11.6379		0.0000		23.8648		415.2294		23.2758		286.3083
12.4660		11.6462		0.0000		23.8732		414.5908		23.2925		286.4083
12.4464		11.6549		0.0000		23.8818		413.9390		23.3097		286.5083
12.4276		11.6629		0.0000		23.8899		413.3137		23.3259		286.6083
12.4094		11.6710		0.0000		23.8980		412.7084		23.3420		286.7083
12.3898		11.6794		0.0000		23.9063		412.0566		23.3587		286.8083
12.3696		11.6874		0.0000		23.9144		411.3848		23.3748		286.9083
12.3486		11.6961		0.0000		23.9230		410.6864		23.3921		287.0083
12.3284		11.7047		0.0000		23.9316		410.0145		23.4094		287.1083
12.3074		11.7128		0.0000		23.9397		409.3161		23.4255		287.2083
12.2870		11.7214		0.0000		23.9484		408.6377		23.4428		287.3083
12.2666		11.7295		0.0000		23.9564		407.9592		23.4589		287.4083
12.2460		11.7375		0.0000		23.9645		407.2741		23.4751		287.5083
12.2246		11.7456		0.0000		23.9725		406.5624		23.4912		287.6083
12.2020		11.7542		0.0000		23.9812		405.8108		23.5085		287.7083
12.1796		11.7629		0.0000		23.9898		405.0658		23.5257		287.8083
12.1574		11.7712		0.0000		23.9982		404.3275		23.5424		287.9084
12.1360		11.7799		0.0000		24.0068		403.6158		23.5597		288.0084
12.1142		11.7879		0.0000		24.0149		402.8907		23.5759		288.1084
12.0914		11.7960		0.0000		24.0229		402.1325		23.5920		288.2084
12.0682		11.8038		0.0000		24.0307		401.3609		23.6075		288.3084
12.0446		11.8127		0.0000		24.0396		400.5760		23.6254		288.4084
12.0214		11.8210		0.0000		24.0480		399.8044		23.6421		288.5084
11.9970		11.8294		0.0000		24.0564		398.9929		23.6588		288.6084
11.9726		11.8378		0.0000		24.0647		398.1815		23.6755		288.7084
11.9482		11.8464		0.0000		24.0733		397.3700		23.6928		288.8084
11.9234		11.8545		0.0000		24.0814		396.5452		23.7089		288.9084
11.8988		11.8622		0.0000		24.0892		395.7270		23.7245		289.0084
11.8748		11.8709		0.0000		24.0978		394.9288		23.7417		289.1084
11.8498		11.8792		0.0000		24.1062		394.0974		23.7584		289.2084
11.8228		11.8879		0.0000		24.1148		393.1994		23.7757		289.3084
11.7950		11.8959		0.0000		24.1229		392.2749		23.7919		289.4084
11.7680		11.9046		0.0000		24.1315		391.3769		23.8091		289.5085
11.7408		11.9129		0.0000		24.1399		390.4723		23.8258		289.6085
11.7140		11.9210		0.0000		24.1479		389.5810		23.8420		289.7085
11.6862		11.9293		0.0000		24.1563		388.6564		23.8587		289.8085
11.6568		11.9377		0.0000		24.1646		387.6787		23.8754		289.9085
11.6272		11.9460		0.0000		24.1730		386.6942		23.8921		290.0085
11.5972		11.9547		0.0000		24.1816		385.6965		23.9094		290.1085
11.5676		11.9630		0.0000		24.1900		384.7121		23.9261		290.2085
11.5384		11.9714		0.0000		24.1983		383.7409		23.9428		290.3085
11.5072		11.9797		0.0000		24.2067		382.7033		23.9595		290.4085
11.4746		11.9872		0.0000		24.2142		381.6191		23.9744		290.5085
11.4408		11.9959		0.0000		24.2228		380.4950		23.9917		290.6085
11.4076		12.0042		0.0000		24.2312		379.3908		24.0084		290.7085
11.3744		12.0129		0.0000		24.2398		378.2867		24.0257		290.8085
11.3406		12.0212		0.0000		24.2482		377.1626		24.0424		290.9085
11.3064		12.0296		0.0000		24.2565		376.0252		24.0591		291.0085
11.2694		12.0382		0.0000		24.2652		374.7946		24.0764		291.1086
11.2326		12.0463		0.0000		24.2732		373.5707		24.0925		291.2086
11.1948		12.0543		0.0000		24.2813		372.3136		24.1087		291.3086
11.1572		12.0627		0.0000		24.2896		371.0631		24.1254		291.4086
11.1192		12.0707		0.0000		24.2977		369.7993		24.1415		291.5086
11.0794		12.0794		0.0000		24.3063		368.4756		24.1588		291.6086
11.0370		12.0880		0.0000		24.3150		367.0655		24.1760		291.7086
10.9934		12.0964		0.0000		24.3233		365.6155		24.1928		291.8086
10.9492		12.1047		0.0000		24.3317		364.1455		24.2095		291.9086
9.1534		12.1137		0.0000		24.3406		304.4213		24.2273		292.0086
8.3742		12.1214		0.0000		24.3484		278.5068		24.2429		292.1086
8.9340		12.1301		0.0000		24.3570		297.1245		24.2601		292.2086
9.0876		12.1384		0.0000		24.3654		302.2329		24.2768		292.3086
9.1002		12.1468		0.0000		24.3737		302.6519		24.2936		292.4086
9.0718		12.1551		0.0000		24.3821		301.7075		24.3103		292.5086
9.0230		12.1635		0.0000		24.3904		300.0844		24.3270		292.6086
8.9658		12.1715		0.0000		24.3985		298.1821		24.3431		292.7086
8.9154		12.1802		0.0000		24.4071		296.5060		24.3604		292.8087
8.8610		12.1885		0.0000		24.4155		294.6967		24.3771		292.9087
8.8116		12.1969		0.0000		24.4238		293.0538		24.3938		293.0087
8.7634		12.2052		0.0000		24.4322		291.4508		24.4105		293.1087
8.7188		12.2136		0.0000		24.4405		289.9674		24.4272		293.2087
8.6742		12.2219		0.0000		24.4489		288.4842		24.4439		293.3087
8.6340		12.2303		0.0000		24.4572		287.1472		24.4606		293.4087
8.5454		12.2384		0.0000		24.4653		284.2006		24.4767		293.5087
8.1472		12.2467		0.0000		24.4737		270.9573		24.4934		293.6087
7.9008		12.2551		0.0000		24.4820		262.7626		24.5101		293.7087
7.7588		12.2631		0.0000		24.4901		258.0400		24.5263		293.8087
7.6760		12.2718		0.0000		24.4987		255.2863		24.5435		293.9087
7.6186		12.2804		0.0000		24.5074		253.3773		24.5608		294.0087
7.5708		12.2882		0.0000		24.5151		251.7876		24.5764		294.1087
7.5282		12.2968		0.0000		24.5238		250.3708		24.5936		294.2087
7.4834		12.3052		0.0000		24.5321		248.8808		24.6104		294.3087
7.4392		12.3135		0.0000		24.5405		247.4109		24.6271		294.4088
7.3974		12.3216		0.0000		24.5485		246.0207		24.6432		294.5088
7.3584		12.3302		0.0000		24.5572		244.7236		24.6605		294.6088
7.3206		12.3386		0.0000		24.5655		243.4665		24.6772		294.7088
7.2868		12.3469		0.0000		24.5739		242.3424		24.6939		294.8088
7.2548		12.3550		0.0000		24.5820		241.2782		24.7100		294.9088

=========================Analysis==========================
nTakeDeforIndex: 1881
Pm_Visible: 1
Pm_Index: 2308
Pm_Load: 14.4966
Pm_Defor: 7.0207
Pm_Stroke: 19.2476
Pm_Stress: 482.1240
Pm_Strain: 14.0413
Pm_Time: 230.9049
PeH_Visible: 1
PeH_Index: 330
PeH_Load: 11.2156
PeH_Defor: 0.0504
PeH_Stroke: 2.7636
PeH_Stress: 373.0053
PeH_Strain: 0.1008
PeH_Time: 33.1001
PeL_Visible: 1
PeL_Index: 382
PeL_Load: 11.0362
PeL_Defor: 0.0452
PeL_Stroke: 3.1968
PeL_Stress: 367.0389
PeL_Strain: 0.0904
PeL_Time: 38.3000
Pp_Visible: 1
Pp_Index: 531
Pp_Load: 11.4430
Pp_Defor: 0.1524
Pp_Stroke: 4.4389
Pp_Stress: 380.5681
Pp_Strain: 0.3048
Pp_Time: 53.1998
Pp1_Visible: 1
Pp1_Index: 498
Pp1_Load: 11.3006
Pp1_Defor: 0.1016
Pp1_Stroke: 4.1642
Pp1_Stress: 375.8323
Pp1_Strain: 0.2032
Pp1_Time: 49.8998
Pt_Visible: 1
Pt_Index: 584
Pt_Load: 11.3824
Pt_Defor: 0.2524
Pt_Stroke: 4.8807
Pt_Stress: 378.5527
Pt_Strain: 0.5048
Pt_Time: 58.4997
Pe_Visible: 0
Pe_Index: 0
Pe_Load: 0.0000
Pe_Defor: 0.0000
Pe_Stroke: 0.0000
Pe_Stress: 0.0000
Pe_Strain: 0.0000
Pe_Time: 0.0000
P1_Visible: 1
P1_Index: 114
P1_Load: 2.9272
P1_Defor: 0.0128
P1_Stroke: 0.9636
P1_Stress: 97.3520
P1_Strain: 0.0256
P1_Time: 11.5000
P2_Visible: 1
P2_Index: 185
P2_Load: 5.8334
P2_Defor: 0.0258
P2_Stroke: 1.5555
P2_Stress: 194.0056
P2_Strain: 0.0516
P2_Time: 18.6000
Pb_Visible: 1
Pb_Index: 2918
Pb_Load: 10.9492
Pb_Defor: 12.1047
Pb_Stroke: 24.3317
Pb_Stress: 364.1455
Pb_Strain: 24.2095
Pb_Time: 291.9086
kE: 223.5815
LP_Index1: 0
LP_Index2: 0
LP_Index3: 0
LP_Index4: 0
LP_Index5: 0
LP_Index6: 0
LP_Index7: 0
LP_Index8: 0
LP_Index9: 0
LP_Index10: 0
EP_Index1: 0
EP_Index2: 0
EP_Index3: 0
EP_Index4: 0
EP_Index5: 0
EP_Index6: 0
EP_Index7: 0
EP_Index8: 0
EP_Index9: 0
EP_Index10: 0
DP_Index1: 0
DP_Index2: 0
DP_Index3: 0
DP_Index4: 0
DP_Index5: 0
DP_Index6: 0
DP_Index7: 0
DP_Index8: 0
DP_Index9: 0
DP_Index10: 0
TP_Index1: 0
TP_Index2: 0
TP_Index3: 0
TP_Index4: 0
TP_Index5: 0
TP_Index6: 0
TP_Index7: 0
TP_Index8: 0
TP_Index9: 0
TP_Index10: 0
